33, 1001
Michael A Robinson, Chris Jernigan, Subi Thakali
NOAA ESRL Chemical Sciences Laboratory and CIRES, U. of Colorado
NOAA Iodide CIMS Instrument
USOS
1, 1
2024, 08, 04, 2024, 08, 05
1
starttime_UTC, seconds_past_midnight, seconds_of_day_since_00:00:00_UTC
1
1
-9999
HNO2_NOAACIMS, pptv, Gas_HNO2_InSitu_S_AVMR, 
0
18
PI_CONTACT_INFO: 325 Broadway, R/CSD 7, Boulder, Colorado 80305; michael.a.robinson@noaa.gov; chris.jernigan@noaa.gov;
PLATFORM: NOAA CSL Mobile Lab
LOCATION: SLC, Utah
ASSOCIATED_DATA: 1Hz data also available on request.
INSTRUMENT_INFO: NOAA I- ToF CIMS
DATA_INFO: All data in parts per trillion by volume (pptv). 1 Hz data is available upon request.
UNCERTAINTY: TBD
ULOD_FLAG: -7777
ULOD_VALUE: N/A
LLOD_FLAG: -8888
LLOD_VALUE: N/A
DM_CONTACT_INFO: Nathan Howard; nathan.h.howard@noaa.gov
PROJECT_INFO: USOS, summer 2024. https://csl.noaa.gov/groups/csl7/measurements/2024usos/
STIPULATIONS_ON_USE: Users are strongly encouraged to contact the PI for proper data usage.
OTHER_COMMENTS: 
REVISION: RA
RA: Preliminary Data; For in-field use only
starttime_UTC, HNO2_NOAACIMS
     0, -9999.000
    60, -9999.000
   120, -9999.000
   180, -9999.000
   240, -9999.000
   300, -9999.000
   360, -9999.000
   420, -9999.000
   480, 32.578
   540, 33.498
   600, 27.735
   660, 31.994
   720, 27.907
   780, 28.744
   840, 32.270
   900, 24.352
   960, 35.532
  1020, 27.234
  1080, 23.737
  1140, 19.718
  1200, 26.820
  1260, 21.254
  1320, 22.644
  1380, -9999.000
  1440, 29.877
  1500, 26.346
  1560, 31.357
  1620, 24.905
  1680, 28.078
  1740, 28.224
  1800, 32.917
  1860, 27.840
  1920, 33.307
  1980, 33.983
  2040, 38.490
  2100, 27.359
  2160, 27.185
  2220, 27.189
  2280, 27.898
  2340, 21.360
  2400, 24.116
  2460, 19.326
  2520, 22.265
  2580, 32.226
  2640, 21.390
  2700, 28.043
  2760, 33.355
  2820, 43.824
  2880, 30.109
  2940, 27.743
  3000, 31.692
  3060, 23.279
  3120, 35.373
  3180, 41.687
  3240, -9999.000
  3300, 28.319
  3360, 32.492
  3420, 24.547
  3480, 35.892
  3540, 18.946
  3600, 21.327
  3660, 23.871
  3720, 22.256
  3780, 22.351
  3840, 29.263
  3900, 17.838
  3960, 24.271
  4020, 25.020
  4080, 41.874
  4140, 31.173
  4200, 40.455
  4260, 32.918
  4320, 41.286
  4380, 35.687
  4440, 44.069
  4500, 38.505
  4560, 39.780
  4620, 43.169
  4680, 56.665
  4740, 43.508
  4800, 46.350
  4860, 37.617
  4920, 53.692
  4980, 34.227
  5040, 35.523
  5100, -9999.000
  5160, 38.597
  5220, 44.039
  5280, 52.940
  5340, 60.843
  5400, 67.987
  5460, 61.068
  5520, 64.186
  5580, 55.263
  5640, 77.532
  5700, 107.346
  5760, 77.146
  5820, 91.808
  5880, 78.153
  5940, 97.464
  6000, 113.352
  6060, 128.890
  6120, 137.085
  6180, 139.951
  6240, 150.453
  6300, 159.602
  6360, 159.233
  6420, 140.620
  6480, 161.170
  6540, 223.502
  6600, 165.608
  6660, 200.623
  6720, 221.244
  6780, 183.639
  6840, 171.943
  6900, 185.588
  6960, 194.406
  7020, 221.235
  7080, 151.977
  7140, 151.024
  7200, 155.187
  7260, 172.059
  7320, 150.208
  7380, 177.142
  7440, 183.818
  7500, 163.971
  7560, 175.729
  7620, 161.221
  7680, 168.201
  7740, 123.371
  7800, 114.765
  7860, 170.258
  7920, 158.958
  7980, 156.557
  8040, 154.394
  8100, 163.028
  8160, 143.175
  8220, 170.570
  8280, 126.549
  8340, 133.906
  8400, 136.146
  8460, 156.232
  8520, 112.244
  8580, 95.066
  8640, 108.996
  8700, 116.750
  8760, -9999.000
  8820, 119.630
  8880, 105.930
  8940, 90.688
  9000, 91.641
  9060, 91.009
  9120, 82.551
  9180, 86.754
  9240, 103.643
  9300, 102.954
  9360, 105.171
  9420, 94.349
  9480, 91.801
  9540, 104.263
  9600, 87.115
  9660, 107.375
  9720, 98.042
  9780, 99.575
  9840, 92.824
  9900, 106.869
  9960, 88.315
 10020, 74.292
 10080, 68.031
 10140, 65.791
 10200, 74.175
 10260, 63.249
 10320, 62.679
 10380, 67.762
 10440, 66.495
 10500, 60.239
 10560, 75.496
 10620, -9999.000
 10680, 49.650
 10740, 51.912
 10800, 60.675
 10860, 66.918
 10920, 57.396
 10980, 67.464
 11040, 57.301
 11100, 44.893
 11160, 70.919
 11220, 71.049
 11280, 42.697
 11340, 36.089
 11400, 41.924
 11460, 38.215
 11520, 38.079
 11580, 33.883
 11640, 38.129
 11700, 32.957
 11760, 44.508
 11820, 32.324
 11880, 52.761
 11940, 48.642
 12000, 33.033
 12060, 37.041
 12120, 34.632
 12180, 31.758
 12240, 42.153
 12300, 37.575
 12360, 46.091
 12420, 47.020
 12480, -9999.000
 12540, 46.047
 12600, 40.049
 12660, 41.829
 12720, 41.129
 12780, 38.499
 12840, 40.512
 12900, 42.459
 12960, 35.482
 13020, 50.292
 13080, 44.823
 13140, 37.560
 13200, 48.299
 13260, 51.477
 13320, 36.747
 13380, 37.799
 13440, 32.129
 13500, 33.740
 13560, 42.358
 13620, 40.501
 13680, 50.835
 13740, 40.794
 13800, 41.721
 13860, 49.631
 13920, 56.953
 13980, 46.652
 14040, 47.899
 14100, 49.038
 14160, 73.038
 14220, 86.296
 14280, 117.889
 14340, 104.894
 14400, 72.371
 14460, 73.672
 14520, 84.541
 14580, 81.313
 14640, 84.736
 14700, 67.946
 14760, 60.635
 14820, 73.644
 14880, 86.512
 14940, 82.983
 15000, 71.603
 15060, 69.870
 15120, 73.379
 15180, 66.965
 15240, 63.975
 15300, 65.783
 15360, 64.704
 15420, 68.402
 15480, 70.947
 15540, 62.527
 15600, 69.120
 15660, 60.957
 15720, 75.334
 15780, 65.020
 15840, 61.513
 15900, 61.061
 15960, 74.315
 16020, 73.259
 16080, 54.476
 16140, 79.841
 16200, 47.822
 16260, 65.664
 16320, 55.445
 16380, 53.836
 16440, 66.804
 16500, 65.975
 16560, 63.568
 16620, 59.408
 16680, 52.648
 16740, 57.909
 16800, 47.923
 16860, 59.140
 16920, 56.400
 16980, 64.906
 17040, 57.265
 17100, 67.168
 17160, 65.511
 17220, 68.584
 17280, 61.159
 17340, 61.323
 17400, 71.196
 17460, 58.041
 17520, 62.482
 17580, 57.585
 17640, 58.323
 17700, 50.828
 17760, 53.206
 17820, 51.898
 17880, 58.470
 17940, 60.647
 18000, 57.341
 18060, 74.419
 18120, 64.099
 18180, 56.795
 18240, 51.026
 18300, 61.599
 18360, 56.770
 18420, 58.084
 18480, 68.203
 18540, 65.960
 18600, 59.714
 18660, 56.065
 18720, 57.859
 18780, 57.824
 18840, 65.464
 18900, 56.274
 18960, 55.247
 19020, 60.951
 19080, 47.581
 19140, 48.609
 19200, 49.983
 19260, 59.097
 19320, 51.558
 19380, 46.310
 19440, 48.519
 19500, 44.076
 19560, 41.193
 19620, 46.885
 19680, 46.845
 19740, 46.044
 19800, 46.685
 19860, -9999.000
 19920, 43.362
 19980, 47.508
 20040, 37.355
 20100, 58.489
 20160, 62.557
 20220, 48.902
 20280, 43.478
 20340, 52.094
 20400, 49.845
 20460, 60.633
 20520, 50.202
 20580, 48.205
 20640, 46.738
 20700, 43.113
 20760, 51.558
 20820, 46.219
 20880, 58.344
 20940, 54.890
 21000, 52.788
 21060, 56.374
 21120, 60.324
 21180, 64.134
 21240, 85.124
 21300, 78.635
 21360, 86.531
 21420, 98.464
 21480, 104.837
 21540, 108.417
 21600, 106.474
 21660, 92.924
 21720, -9999.000
 21780, 106.531
 21840, 115.771
 21900, 103.558
 21960, 112.365
 22020, 107.497
 22080, 109.981
 22140, 105.086
 22200, 100.032
 22260, 79.308
 22320, 82.195
 22380, 63.414
 22440, 64.742
 22500, 68.145
 22560, 58.501
 22620, 55.911
 22680, 60.465
 22740, 55.203
 22800, 109.642
 22860, 62.577
 22920, 68.600
 22980, 81.432
 23040, 65.870
 23100, 86.304
 23160, 97.932
 23220, 113.279
 23280, 140.902
 23340, 156.680
 23400, 166.679
 23460, 179.687
 23520, 169.371
 23580, -9999.000
 23640, 181.359
 23700, 179.395
 23760, 194.495
 23820, 186.514
 23880, 195.793
 23940, 188.749
 24000, 188.359
 24060, 180.243
 24120, 175.117
 24180, 173.494
 24240, 157.208
 24300, 156.423
 24360, 152.249
 24420, 119.102
 24480, 118.365
 24540, 111.635
 24600, 108.812
 24660, 103.544
 24720, 90.304
 24780, 84.684
 24840, 79.407
 24900, 87.898
 24960, 73.155
 25020, 80.964
 25080, 73.428
 25140, 66.156
 25200, 82.722
 25260, 75.669
 25320, 78.403
 25380, 86.315
 25440, 65.311
 25500, 84.152
 25560, 75.473
 25620, 76.788
 25680, 81.476
 25740, 82.571
 25800, 84.238
 25860, 86.516
 25920, 79.587
 25980, 76.968
 26040, 89.546
 26100, 94.604
 26160, 85.642
 26220, 83.440
 26280, 85.400
 26340, 98.100
 26400, 84.427
 26460, 88.093
 26520, 95.313
 26580, 92.061
 26640, 98.488
 26700, 95.510
 26760, 102.388
 26820, 97.640
 26880, 99.703
 26940, 95.921
 27000, 117.378
 27060, 108.021
 27120, 111.795
 27180, 120.711
 27240, -9999.000
 27300, 110.273
 27360, 114.732
 27420, 122.504
 27480, 125.869
 27540, 146.122
 27600, 134.202
 27660, 143.463
 27720, 139.116
 27780, 132.409
 27840, 135.327
 27900, 141.417
 27960, 147.805
 28020, 144.937
 28080, 145.692
 28140, 140.417
 28200, 151.788
 28260, 140.265
 28320, 148.454
 28380, 150.433
 28440, 135.573
 28500, 146.637
 28560, 150.459
 28620, 131.275
 28680, 152.193
 28740, 166.539
 28800, 154.621
 28860, 143.418
 28920, 137.777
 28980, 145.612
 29040, 132.494
 29100, -9999.000
 29160, 116.315
 29220, 114.753
 29280, 117.416
 29340, 108.318
 29400, 102.956
 29460, 116.643
 29520, 97.990
 29580, 91.841
 29640, 81.658
 29700, 88.467
 29760, 91.560
 29820, 75.735
 29880, 56.505
 29940, 54.435
 30000, 74.686
 30060, 86.042
 30120, 80.132
 30180, 104.162
 30240, 97.961
 30300, 108.889
 30360, 93.718
 30420, 90.334
 30480, 107.307
 30540, 102.994
 30600, 116.210
 30660, 140.596
 30720, 124.433
 30780, 98.206
 30840, 84.943
 30900, 78.150
 30960, -9999.000
 31020, 75.285
 31080, 74.863
 31140, 61.462
 31200, 57.715
 31260, 52.168
 31320, 57.733
 31380, 52.217
 31440, 54.033
 31500, 60.477
 31560, 60.929
 31620, 60.720
 31680, 71.246
 31740, 60.296
 31800, 69.008
 31860, 68.838
 31920, 62.290
 31980, 57.120
 32040, 61.844
 32100, 62.843
 32160, 62.040
 32220, 71.685
 32280, 60.749
 32340, 66.319
 32400, 67.736
 32460, 67.555
 32520, 71.864
 32580, 68.562
 32640, 69.641
 32700, 78.246
 32760, 82.558
 32820, 62.671
 32880, 73.468
 32940, 76.822
 33000, 80.741
 33060, 88.633
 33120, 69.630
 33180, 76.226
 33240, 71.561
 33300, 79.670
 33360, 81.596
 33420, 94.829
 33480, 96.210
 33540, 93.333
 33600, 89.133
 33660, 75.691
 33720, 78.576
 33780, 88.944
 33840, 82.227
 33900, 77.078
 33960, 82.210
 34020, 82.162
 34080, 78.349
 34140, 73.942
 34200, 82.847
 34260, 64.835
 34320, 75.763
 34380, 62.406
 34440, 65.279
 34500, 67.761
 34560, 71.535
 34620, 67.896
 34680, 56.804
 34740, 70.998
 34800, 84.037
 34860, 83.631
 34920, 82.882
 34980, 69.590
 35040, 68.206
 35100, 74.399
 35160, 78.510
 35220, 70.293
 35280, 69.874
 35340, 69.834
 35400, 56.949
 35460, 52.031
 35520, 63.405
 35580, 57.772
 35640, 62.477
 35700, 67.005
 35760, 53.705
 35820, 58.395
 35880, 60.570
 35940, 55.132
 36000, 61.709
 36060, 73.369
 36120, 52.988
 36180, 38.072
 36240, 55.645
 36300, 50.904
 36360, 60.617
 36420, 66.731
 36480, 56.528
 36540, 63.849
 36600, 62.516
 36660, 62.375
 36720, 68.843
 36780, 74.646
 36840, 69.860
 36900, 71.124
 36960, 79.255
 37020, 62.590
 37080, 51.505
 37140, 67.344
 37200, 56.502
 37260, 55.428
 37320, 75.287
 37380, 59.563
 37440, 65.945
 37500, 80.881
 37560, 72.373
 37620, 67.735
 37680, 72.819
 37740, 76.421
 37800, 85.092
 37860, 86.147
 37920, 92.810
 37980, 102.103
 38040, 113.129
 38100, 104.576
 38160, 129.368
 38220, 144.150
 38280, 137.052
 38340, -9999.000
 38400, 125.653
 38460, 134.226
 38520, 108.327
 38580, 121.355
 38640, 122.790
 38700, 123.568
 38760, 129.438
 38820, 133.624
 38880, 130.085
 38940, 155.792
 39000, 152.741
 39060, 155.134
 39120, 204.940
 39180, 201.276
 39240, 204.855
 39300, 213.072
 39360, 218.772
 39420, 226.512
 39480, 225.674
 39540, 237.706
 39600, 241.947
 39660, 261.606
 39720, 247.324
 39780, 235.328
 39840, 248.068
 39900, 270.550
 39960, 270.893
 40020, 270.884
 40080, 257.218
 40140, 225.377
 40200, -9999.000
 40260, 205.370
 40320, 191.591
 40380, 192.417
 40440, 223.017
 40500, 196.850
 40560, 172.638
 40620, 159.205
 40680, 144.829
 40740, 148.321
 40800, 150.650
 40860, 173.666
 40920, 166.045
 40980, 171.668
 41040, 143.232
 41100, 122.809
 41160, 129.007
 41220, 132.301
 41280, 155.588
 41340, 169.419
 41400, 144.990
 41460, 121.723
 41520, 143.822
 41580, 158.553
 41640, 167.922
 41700, 194.289
 41760, 178.106
 41820, 168.577
 41880, 178.316
 41940, 178.493
 42000, 194.313
 42060, -9999.000
 42120, 186.685
 42180, 180.328
 42240, 195.455
 42300, 187.904
 42360, 189.367
 42420, 221.858
 42480, 211.684
 42540, 198.982
 42600, 212.927
 42660, 173.348
 42720, 198.251
 42780, 207.984
 42840, 214.494
 42900, 222.137
 42960, 245.417
 43020, 218.989
 43080, 220.666
 43140, 202.596
 43200, 150.632
 43260, 157.119
 43320, 126.311
 43380, 118.308
 43440, 110.350
 43500, 112.603
 43560, 194.023
 43620, 178.390
 43680, 175.429
 43740, 208.006
 43800, 199.929
 43860, 209.580
 43920, 208.213
 43980, 218.675
 44040, 272.853
 44100, 255.618
 44160, 243.629
 44220, 205.211
 44280, 209.801
 44340, 207.351
 44400, 213.906
 44460, 214.807
 44520, 204.006
 44580, 183.782
 44640, 177.736
 44700, 177.910
 44760, 186.759
 44820, 189.746
 44880, 199.206
 44940, 194.790
 45000, 195.736
 45060, 184.159
 45120, 182.209
 45180, 227.477
 45240, 213.797
 45300, 240.038
 45360, 253.526
 45420, 234.786
 45480, 233.029
 45540, 224.392
 45600, 227.116
 45660, 251.720
 45720, -9999.000
 45780, 239.157
 45840, 227.892
 45900, 203.290
 45960, 202.398
 46020, 246.701
 46080, 243.269
 46140, 241.852
 46200, 235.118
 46260, 217.554
 46320, 215.191
 46380, 226.354
 46440, 245.831
 46500, 242.558
 46560, 224.564
 46620, 228.760
 46680, 209.100
 46740, 238.284
 46800, 259.942
 46860, 310.307
 46920, 337.208
 46980, 284.539
 47040, 285.036
 47100, 247.708
 47160, 234.910
 47220, 216.363
 47280, 217.263
 47340, 218.437
 47400, 230.744
 47460, 231.827
 47520, 192.493
 47580, -9999.000
 47640, 190.951
 47700, 200.816
 47760, 169.725
 47820, 170.873
 47880, 169.828
 47940, 156.659
 48000, 163.360
 48060, 172.855
 48120, 163.760
 48180, 183.153
 48240, 170.301
 48300, 156.991
 48360, 123.936
 48420, 118.076
 48480, 101.789
 48540, 131.508
 48600, 114.343
 48660, 116.816
 48720, 128.349
 48780, 141.923
 48840, 133.852
 48900, 122.283
 48960, 126.021
 49020, 115.263
 49080, 126.698
 49140, 121.040
 49200, 116.200
 49260, 128.707
 49320, 148.341
 49380, 138.676
 49440, -9999.000
 49500, 116.848
 49560, 126.356
 49620, 110.581
 49680, 119.561
 49740, 106.529
 49800, 82.382
 49860, 86.810
 49920, 80.401
 49980, 71.124
 50040, 81.574
 50100, 82.183
 50160, 80.705
 50220, 110.418
 50280, 121.735
 50340, 143.037
 50400, 153.799
 50460, 157.743
 50520, 163.963
 50580, 154.024
 50640, 151.714
 50700, 172.202
 50760, 168.328
 50820, 136.784
 50880, 156.031
 50940, 179.121
 51000, 196.172
 51060, 213.065
 51120, 221.926
 51180, 272.884
 51240, 310.118
 51300, 301.016
 51360, 282.082
 51420, 239.734
 51480, 265.823
 51540, 234.603
 51600, 225.725
 51660, 235.736
 51720, 240.235
 51780, 222.701
 51840, 214.315
 51900, 184.829
 51960, 186.624
 52020, 181.700
 52080, 177.612
 52140, 140.451
 52200, 142.828
 52260, 144.953
 52320, 166.831
 52380, 105.338
 52440, 73.223
 52500, 101.230
 52560, 97.835
 52620, 104.553
 52680, 81.617
 52740, 84.406
 52800, 79.118
 52860, 70.776
 52920, 79.803
 52980, 83.352
 53040, 74.709
 53100, 46.695
 53160, 68.401
 53220, 69.256
 53280, 56.445
 53340, 47.075
 53400, 47.820
 53460, 51.284
 53520, 61.543
 53580, 65.135
 53640, 78.931
 53700, 66.844
 53760, 42.828
 53820, 31.015
 53880, 37.993
 53940, 43.494
 54000, 52.419
 54060, 58.760
 54120, 61.814
 54180, 51.975
 54240, 63.556
 54300, 77.505
 54360, 75.177
 54420, 73.524
 54480, 67.706
 54540, 58.062
 54600, 64.492
 54660, 75.838
 54720, 59.323
 54780, 41.738
 54840, 47.877
 54900, 56.850
 54960, 71.337
 55020, 67.591
 55080, 59.941
 55140, 56.520
 55200, 77.032
 55260, 59.672
 55320, 59.876
 55380, 70.334
 55440, 51.474
 55500, 72.095
 55560, 61.393
 55620, 97.347
 55680, 82.843
 55740, 75.412
 55800, 72.778
 55860, 71.509
 55920, 60.330
 55980, 86.169
 56040, 81.431
 56100, 97.303
 56160, 112.098
 56220, 70.620
 56280, 74.908
 56340, 55.607
 56400, 63.790
 56460, 45.509
 56520, 59.918
 56580, 47.813
 56640, 55.844
 56700, 69.088
 56760, -9999.000
 56820, -9999.000
 56880, -9999.000
 56940, -9999.000
 57000, -9999.000
 57060, -9999.000
 57120, -9999.000
 57180, -9999.000
 57240, -9999.000
 57300, -9999.000
 57360, -9999.000
 57420, -9999.000
 57480, -9999.000
 57540, -9999.000
 57600, -9999.000
 57660, -9999.000
 57720, -9999.000
 57780, -9999.000
 57840, -9999.000
 57900, -9999.000
 57960, -9999.000
 58020, 56.981
 58080, 69.743
 58140, 54.922
 58200, 79.203
 58260, 78.434
 58320, 81.324
 58380, 79.345
 58440, 60.123
 58500, 57.787
 58560, 56.552
 58620, 66.727
 58680, 68.897
 58740, 60.951
 58800, 63.639
 58860, 74.883
 58920, 75.315
 58980, 77.495
 59040, 75.826
 59100, 76.777
 59160, 70.031
 59220, 66.508
 59280, 80.651
 59340, 78.645
 59400, 95.812
 59460, 81.068
 59520, 58.707
 59580, 56.398
 59640, 53.509
 59700, 47.574
 59760, 80.565
 59820, 78.305
 59880, 51.423
 59940, 68.173
 60000, -9999.000
 60060, 78.072
 60120, 77.603
 60180, 61.640
 60240, 62.955
 60300, 69.268
 60360, 57.857
 60420, 49.020
 60480, 43.142
 60540, 36.864
 60600, 46.960
 60660, 45.424
 60720, 61.294
 60780, 62.812
 60840, 62.873
 60900, 63.804
 60960, 40.053
 61020, 49.239
 61080, 57.712
 61140, 50.635
 61200, 55.026
 61260, 57.508
 61320, 49.593
 61380, 67.062
 61440, 57.103
 61500, 43.259
 61560, 35.977
 61620, 34.657
 61680, 51.169
 61740, 54.749
 61800, 47.140
 61860, -9999.000
 61920, 62.596
 61980, 56.062
 62040, 37.209
 62100, 38.706
 62160, 46.118
 62220, 59.193
 62280, 73.336
 62340, 72.007
 62400, 57.847
 62460, 62.877
 62520, 77.290
 62580, 68.294
 62640, 52.139
 62700, 71.915
 62760, 67.935
 62820, 67.935
 62880, 63.843
 62940, 63.658
 63000, 69.049
 63060, 74.054
 63120, 57.017
 63180, 46.812
 63240, 66.352
 63300, 73.673
 63360, 66.431
 63420, 57.447
 63480, 67.609
 63540, 88.837
 63600, 70.176
 63660, 81.707
 63720, -9999.000
 63780, 75.959
 63840, 59.065
 63900, 59.145
 63960, 77.935
 64020, 64.940
 64080, 68.108
 64140, 68.501
 64200, 51.426
 64260, 60.801
 64320, 54.997
 64380, 54.981
 64440, 58.865
 64500, 61.707
 64560, 63.444
 64620, 62.291
 64680, 53.653
 64740, 48.391
 64800, 64.668
 64860, 70.136
 64920, 55.410
 64980, 60.885
 65040, 45.727
 65100, 55.126
 65160, 52.339
 65220, 50.612
 65280, 38.145
 65340, 48.298
 65400, 52.243
 65460, 44.300
 65520, 42.417
 65580, 31.047
 65640, 39.549
 65700, 38.405
 65760, 35.512
 65820, 40.757
 65880, 40.405
 65940, 47.384
 66000, 45.335
 66060, 44.388
 66120, 38.600
 66180, 54.438
 66240, 52.926
 66300, 62.484
 66360, 53.898
 66420, 62.333
 66480, 45.409
 66540, 43.410
 66600, 56.389
 66660, 47.339
 66720, 45.561
 66780, 44.102
 66840, 38.101
 66900, 45.628
 66960, 38.406
 67020, 44.305
 67080, 32.852
 67140, 31.913
 67200, 35.768
 67260, 32.528
 67320, 41.490
 67380, 46.564
 67440, 54.721
 67500, 41.941
 67560, 40.351
 67620, 42.110
 67680, 50.764
 67740, 38.883
 67800, 44.470
 67860, 52.449
 67920, 42.126
 67980, 46.152
 68040, 52.551
 68100, 52.954
 68160, 57.895
 68220, 60.165
 68280, 42.006
 68340, 43.280
 68400, 41.016
 68460, 46.063
 68520, 49.664
 68580, 42.348
 68640, 50.507
 68700, 41.129
 68760, 46.792
 68820, 40.725
 68880, 35.239
 68940, 38.356
 69000, 31.235
 69060, 34.141
 69120, 38.323
 69180, 30.057
 69240, 38.733
 69300, 35.914
 69360, 43.128
 69420, 40.476
 69480, 39.235
 69540, 40.454
 69600, 37.701
 69660, 34.017
 69720, 48.980
 69780, 43.186
 69840, 34.650
 69900, 39.296
 69960, 40.824
 70020, 39.998
 70080, 45.005
 70140, 41.352
 70200, 46.534
 70260, 52.886
 70320, 36.382
 70380, 36.228
 70440, 36.950
 70500, 33.561
 70560, 26.563
 70620, 30.058
 70680, 26.792
 70740, 34.220
 70800, 36.884
 70860, 34.685
 70920, 29.936
 70980, 33.919
 71040, 32.623
 71100, -9999.000
 71160, 46.503
 71220, 42.370
 71280, 32.361
 71340, 32.110
 71400, 33.458
 71460, 27.342
 71520, 38.654
 71580, 33.374
 71640, 27.468
 71700, 34.119
 71760, 32.717
 71820, 36.588
 71880, 41.145
 71940, 28.042
 72000, 29.058
 72060, 27.080
 72120, 28.441
 72180, 25.848
 72240, 28.025
 72300, 30.563
 72360, 42.528
 72420, 36.217
 72480, 26.694
 72540, 27.614
 72600, 26.347
 72660, 24.571
 72720, 31.586
 72780, 27.527
 72840, 27.865
 72900, 30.191
 72960, 31.260
 73020, 22.676
 73080, 28.823
 73140, 24.979
 73200, 23.205
 73260, 25.340
 73320, 19.045
 73380, 16.690
 73440, 20.941
 73500, 22.987
 73560, 43.255
 73620, 44.214
 73680, 25.927
 73740, 34.511
 73800, 33.982
 73860, 29.907
 73920, 36.220
 73980, 26.105
 74040, 29.892
 74100, 26.981
 74160, 31.625
 74220, 35.561
 74280, 33.478
 74340, 29.039
 74400, 23.795
 74460, 37.156
 74520, 34.706
 74580, 25.114
 74640, 35.091
 74700, 32.733
 74760, 25.202
 74820, -9999.000
 74880, 18.178
 74940, 19.799
 75000, 25.487
 75060, 30.398
 75120, 25.718
 75180, 28.058
 75240, 38.552
 75300, 36.074
 75360, 32.369
 75420, 27.215
 75480, 33.534
 75540, 26.061
 75600, 26.727
 75660, 27.774
 75720, 31.001
 75780, 33.315
 75840, 34.460
 75900, 30.360
 75960, 33.496
 76020, 32.742
 76080, 30.824
 76140, 23.840
 76200, 29.684
 76260, 31.203
 76320, 22.276
 76380, 22.405
 76440, 25.255
 76500, 26.361
 76560, 23.768
 76620, 32.606
 76680, 22.888
 76740, 29.334
 76800, 30.952
 76860, 26.250
 76920, 23.369
 76980, 23.436
 77040, 19.739
 77100, 24.554
 77160, 17.826
 77220, 17.162
 77280, 20.156
 77340, 23.455
 77400, 26.850
 77460, 22.322
 77520, 18.572
 77580, 21.566
 77640, 27.306
 77700, 24.711
 77760, 22.820
 77820, 33.426
 77880, 30.904
 77940, 33.877
 78000, 28.625
 78060, 23.681
 78120, 26.102
 78180, 24.471
 78240, 15.226
 78300, 19.883
 78360, 20.898
 78420, 15.480
 78480, -9999.000
 78540, 21.993
 78600, 21.091
 78660, 24.221
 78720, 40.182
 78780, 32.767
 78840, 14.476
 78900, 23.525
 78960, 20.502
 79020, 23.017
 79080, 19.047
 79140, 25.992
 79200, 25.578
 79260, 25.012
 79320, 22.638
 79380, 29.307
 79440, 23.450
 79500, 28.110
 79560, 22.302
 79620, 26.647
 79680, 28.611
 79740, 20.671
 79800, 22.681
 79860, 19.607
 79920, 21.197
 79980, 21.936
 80040, 19.926
 80100, 26.726
 80160, 20.039
 80220, 27.331
 80280, 12.994
 80340, -9999.000
 80400, 28.903
 80460, 29.966
 80520, 22.568
 80580, 19.843
 80640, 20.868
 80700, 21.527
 80760, 18.247
 80820, 19.707
 80880, 20.804
 80940, 22.512
 81000, 23.027
 81060, 24.729
 81120, 16.295
 81180, 14.799
 81240, 21.785
 81300, 19.524
 81360, 17.095
 81420, 13.781
 81480, 20.451
 81540, 16.378
 81600, 15.745
 81660, 12.776
 81720, 17.794
 81780, 14.057
 81840, 11.652
 81900, 18.116
 81960, 15.798
 82020, 21.611
 82080, 21.114
 82140, 22.752
 82200, -9999.000
 82260, 25.982
 82320, 21.949
 82380, 11.784
 82440, 16.575
 82500, 16.195
 82560, 21.280
 82620, 25.418
 82680, 19.453
 82740, 22.309
 82800, 12.832
 82860, 17.014
 82920, 20.906
 82980, 22.523
 83040, 16.732
 83100, 13.466
 83160, 12.008
 83220, 11.447
 83280, 13.800
 83340, 13.285
 83400, 21.899
 83460, 14.734
 83520, 18.882
 83580, 21.794
 83640, 21.293
 83700, 19.155
 83760, 19.400
 83820, 14.894
 83880, 11.351
 83940, 16.618
 84000, 18.528
 84060, 17.302
 84120, 10.958
 84180, 12.959
 84240, 15.340
 84300,  7.037
 84360,  8.410
 84420,  6.687
 84480, 19.744
 84540, 15.132
 84600, 10.355
 84660, 10.059
 84720, 16.556
 84780, 12.037
 84840, 13.023
 84900,  8.034
 84960,  7.201
 85020, 13.771
 85080, 15.737
 85140, 18.184
 85200, 16.423
 85260, 17.699
 85320, 15.461
 85380, 20.472
 85440, 15.901
 85500, 16.190
 85560, 14.292
 85620, 16.694
 85680, 11.788
 85740, 16.388
 85800, 11.058
 85860, -9999.000
 85920,  6.157
 85980, 12.154
 86040, 12.812
 86100,  9.055
 86160, 13.107
 86220, 10.117
 86280, 12.953
 86340, 14.366
