33, 1001
Michael A Robinson, Chris Jernigan, Subi Thakali
NOAA ESRL Chemical Sciences Laboratory and CIRES, U. of Colorado
NOAA Iodide CIMS Instrument
USOS
1, 1
2024, 08, 13, 2024, 08, 15
1
starttime_UTC, seconds_past_midnight, seconds_of_day_since_00:00:00_UTC
1
1
-9999
HNO2_NOAACIMS, pptv, Gas_HNO2_InSitu_S_AVMR, 
0
18
PI_CONTACT_INFO: 325 Broadway, R/CSD 7, Boulder, Colorado 80305; michael.a.robinson@noaa.gov; chris.jernigan@noaa.gov;
PLATFORM: NOAA CSL Mobile Lab
LOCATION: SLC, Utah
ASSOCIATED_DATA: 1Hz data also available on request.
INSTRUMENT_INFO: NOAA I- ToF CIMS
DATA_INFO: All data in parts per trillion by volume (pptv). 1 Hz data is available upon request.
UNCERTAINTY: TBD
ULOD_FLAG: -7777
ULOD_VALUE: N/A
LLOD_FLAG: -8888
LLOD_VALUE: N/A
DM_CONTACT_INFO: Nathan Howard; nathan.h.howard@noaa.gov
PROJECT_INFO: USOS, summer 2024. https://csl.noaa.gov/groups/csl7/measurements/2024usos/
STIPULATIONS_ON_USE: Users are strongly encouraged to contact the PI for proper data usage.
OTHER_COMMENTS: 
REVISION: RA
RA: Preliminary Data; For in-field use only
starttime_UTC, HNO2_NOAACIMS
     0, 60.733
    60, 65.439
   120, 61.313
   180, 54.919
   240, 56.114
   300, 51.755
   360, 48.323
   420, 45.337
   480, 57.177
   540, 63.672
   600, 68.212
   660, 58.979
   720, 53.269
   780, 66.683
   840, 55.383
   900, 46.725
   960, -9999.000
  1020, 59.093
  1080, 78.256
  1140, 76.129
  1200, 74.974
  1260, 86.148
  1320, 75.984
  1380, 68.483
  1440, 82.443
  1500, 80.823
  1560, 85.523
  1620, 93.116
  1680, 84.680
  1740, 90.719
  1800, 94.922
  1860, 80.060
  1920, 101.686
  1980, 128.538
  2040, 114.176
  2100, 100.587
  2160, 102.128
  2220, 99.954
  2280, 98.545
  2340, 83.621
  2400, 101.970
  2460, 121.870
  2520, 117.566
  2580, 141.065
  2640, 109.922
  2700, 103.264
  2760, 113.300
  2820, -9999.000
  2880, 88.768
  2940, 106.327
  3000, 94.331
  3060, 112.066
  3120, 91.788
  3180, 94.831
  3240, 83.192
  3300, 108.374
  3360, 108.086
  3420, 111.017
  3480, 128.907
  3540, 135.607
  3600, 118.107
  3660, 108.160
  3720, 101.148
  3780, 78.264
  3840, 58.229
  3900, 58.436
  3960, 73.145
  4020, 85.358
  4080, 109.711
  4140, 128.363
  4200, 136.457
  4260, 133.249
  4320, 134.819
  4380, 158.791
  4440, 181.514
  4500, 173.383
  4560, 187.484
  4620, 168.380
  4680, 177.031
  4740, 195.727
  4800, 179.814
  4860, 184.930
  4920, 236.045
  4980, 216.947
  5040, 207.882
  5100, 218.617
  5160, 209.455
  5220, 186.685
  5280, 168.538
  5340, 181.125
  5400, 180.846
  5460, 152.560
  5520, 161.849
  5580, 142.964
  5640, 147.714
  5700, 153.191
  5760, 161.105
  5820, 164.050
  5880, 171.778
  5940, 185.743
  6000, 167.254
  6060, 102.423
  6120, 141.583
  6180, 162.205
  6240, 155.086
  6300, 154.420
  6360, 170.194
  6420, 136.847
  6480, 100.084
  6540, 130.277
  6600, 114.304
  6660, 131.904
  6720, 107.828
  6780, 157.224
  6840, 146.571
  6900, 132.749
  6960, 137.098
  7020, 121.668
  7080, 111.219
  7140, 133.774
  7200, 142.314
  7260, 141.032
  7320, 173.648
  7380, 198.169
  7440, 186.250
  7500, 161.927
  7560, 159.150
  7620, 162.335
  7680, 134.830
  7740, 175.167
  7800, 105.148
  7860, 99.775
  7920, 102.784
  7980, 129.424
  8040, 90.699
  8100, 90.041
  8160, 84.924
  8220, 91.455
  8280, 90.378
  8340, 92.058
  8400, 119.845
  8460, 152.943
  8520, 128.882
  8580, 111.447
  8640, 88.335
  8700, 90.107
  8760, 98.475
  8820, 111.164
  8880, 120.956
  8940, 102.441
  9000, 108.721
  9060, 102.492
  9120, 97.300
  9180, 94.402
  9240, 95.258
  9300, 75.172
  9360, 130.295
  9420, 110.472
  9480, 91.707
  9540, 81.123
  9600, 101.078
  9660, 75.342
  9720, 86.215
  9780, 55.975
  9840, 62.985
  9900, 79.349
  9960, 103.521
 10020, 82.692
 10080, 79.119
 10140, 88.275
 10200, -9999.000
 10260, 92.257
 10320, 110.005
 10380, 104.546
 10440, 133.689
 10500, 119.606
 10560, 131.589
 10620, 111.653
 10680, 99.574
 10740, 104.107
 10800, 136.690
 10860, 134.435
 10920, 153.922
 10980, 143.844
 11040, 149.731
 11100, 172.449
 11160, 180.226
 11220, 172.500
 11280, 175.269
 11340, 184.156
 11400, 215.665
 11460, 248.416
 11520, 265.492
 11580, 263.231
 11640, 273.061
 11700, 308.742
 11760, 238.611
 11820, 239.956
 11880, 262.158
 11940, 291.366
 12000, 291.194
 12060, 305.673
 12120, 249.686
 12180, 285.212
 12240, 250.449
 12300, 226.641
 12360, 248.977
 12420, 249.834
 12480, 295.663
 12540, 355.478
 12600, 353.293
 12660, 337.604
 12720, 352.792
 12780, 353.806
 12840, 287.598
 12900, 188.003
 12960, 264.561
 13020, 331.873
 13080, 360.715
 13140, 337.529
 13200, 314.090
 13260, 337.277
 13320, 354.785
 13380, 295.505
 13440, 297.622
 13500, 358.531
 13560, 320.908
 13620, 347.801
 13680, 374.749
 13740, 355.374
 13800, 389.858
 13860, 391.895
 13920, -9999.000
 13980, 409.946
 14040, 393.225
 14100, 422.729
 14160, 396.721
 14220, 388.119
 14280, 402.825
 14340, 369.909
 14400, 391.323
 14460, 441.939
 14520, 390.675
 14580, 378.899
 14640, 377.653
 14700, 382.989
 14760, 366.466
 14820, 407.872
 14880, 377.854
 14940, 373.422
 15000, 379.120
 15060, 352.467
 15120, 323.099
 15180, 327.555
 15240, 358.485
 15300, 357.944
 15360, 338.143
 15420, 314.648
 15480, 289.234
 15540, 345.030
 15600, 321.981
 15660, 261.070
 15720, 223.391
 15780, 283.687
 15840, 303.812
 15900, 228.070
 15960, 232.409
 16020, 274.352
 16080, 275.636
 16140, 272.758
 16200, 284.933
 16260, 233.965
 16320, 212.923
 16380, 214.293
 16440, 233.433
 16500, 201.583
 16560, 171.033
 16620, 196.384
 16680, 177.124
 16740, 172.442
 16800, 191.290
 16860, 185.179
 16920, 197.699
 16980, 207.691
 17040, 216.757
 17100, 189.689
 17160, 142.623
 17220, 113.264
 17280, 140.151
 17340, 160.223
 17400, 145.547
 17460, 125.358
 17520, 113.548
 17580, -9999.000
 17640, 114.397
 17700, 129.077
 17760, 159.467
 17820, 142.491
 17880, 111.991
 17940, 108.848
 18000, 103.313
 18060, 94.691
 18120, 88.721
 18180, 81.792
 18240, 93.654
 18300, 64.104
 18360, 76.980
 18420, 97.236
 18480, 65.755
 18540, 65.520
 18600, 78.154
 18660, 81.021
 18720, 79.681
 18780, 79.846
 18840, 98.767
 18900, 96.020
 18960, 69.122
 19020, 71.134
 19080, 80.787
 19140, 58.944
 19200, 65.183
 19260, 84.564
 19320, 80.941
 19380, 90.989
 19440, -9999.000
 19500, 99.946
 19560, 87.852
 19620, 112.476
 19680, 128.320
 19740, 131.997
 19800, 132.151
 19860, 118.767
 19920, 105.194
 19980, 120.771
 20040, 112.179
 20100, 92.212
 20160, 100.296
 20220, 80.171
 20280, 84.542
 20340, 72.107
 20400, 65.539
 20460, 87.726
 20520, 73.445
 20580, 71.098
 20640, 75.055
 20700, 79.886
 20760, 52.186
 20820, 66.343
 20880, 78.046
 20940, 70.823
 21000, 76.579
 21060, 69.968
 21120, 75.501
 21180, 88.841
 21240, 91.488
 21300, -9999.000
 21360, 62.927
 21420, 89.093
 21480, 90.582
 21540, 92.917
 21600, 86.646
 21660, 96.992
 21720, 73.579
 21780, 59.678
 21840, 66.208
 21900, 81.448
 21960, 74.125
 22020, 74.737
 22080, 78.004
 22140, 76.529
 22200, 83.786
 22260, 85.341
 22320, 89.381
 22380, 69.057
 22440, 77.502
 22500, 77.861
 22560, 86.168
 22620, 98.172
 22680, 101.584
 22740, 103.251
 22800, 102.295
 22860, 130.864
 22920, 125.780
 22980, 126.283
 23040, 114.602
 23100, 107.254
 23160, 119.785
 23220, 133.884
 23280, 96.268
 23340, 74.824
 23400, 92.505
 23460, 97.738
 23520, 99.779
 23580, 76.213
 23640, 84.906
 23700, 81.977
 23760, 91.014
 23820, 101.987
 23880, 134.877
 23940, 87.076
 24000, 113.816
 24060, 98.644
 24120, 95.062
 24180, 86.285
 24240, 87.040
 24300, 83.329
 24360, 81.285
 24420, 69.804
 24480, 77.259
 24540, 75.325
 24600, 60.333
 24660, 77.861
 24720, 91.023
 24780, 89.132
 24840, 94.616
 24900, 80.365
 24960, -9999.000
 25020, 93.266
 25080, 91.443
 25140, 84.320
 25200, 70.612
 25260, 86.923
 25320, 72.171
 25380, 80.900
 25440, 89.484
 25500, 95.022
 25560, 96.066
 25620, 96.742
 25680, 94.645
 25740, 68.824
 25800, 76.574
 25860, 74.049
 25920, 85.513
 25980, 87.515
 26040, 78.552
 26100, 83.034
 26160, 50.611
 26220, 74.704
 26280, 68.257
 26340, 58.854
 26400, 57.164
 26460, 66.605
 26520, 56.430
 26580, 59.599
 26640, 69.581
 26700, 63.118
 26760, 61.479
 26820, 74.644
 26880, 84.429
 26940, 71.101
 27000, 79.238
 27060, 90.496
 27120, 88.462
 27180, 92.053
 27240, 87.555
 27300, 90.739
 27360, 86.927
 27420, 93.223
 27480, 105.823
 27540, 121.249
 27600, 136.425
 27660, 146.612
 27720, 145.795
 27780, 124.286
 27840, 101.246
 27900, 93.536
 27960, 81.306
 28020, 76.333
 28080, 65.536
 28140, 78.867
 28200, 101.582
 28260, 115.179
 28320, 121.791
 28380, 100.121
 28440, 95.909
 28500, 128.514
 28560, 127.759
 28620, 125.064
 28680, -9999.000
 28740, 86.315
 28800, 78.598
 28860, 79.259
 28920, 92.625
 28980, 79.408
 29040, 75.079
 29100, 72.510
 29160, 68.870
 29220, 83.758
 29280, 78.952
 29340, 64.971
 29400, 68.574
 29460, 66.903
 29520, 67.404
 29580, 53.358
 29640, 59.465
 29700, 43.971
 29760, 65.247
 29820, 60.240
 29880, 61.393
 29940, 49.310
 30000, 43.212
 30060, 64.810
 30120, 58.543
 30180, 57.685
 30240, 66.243
 30300, 61.733
 30360, 56.600
 30420, 61.194
 30480, 60.463
 30540, 72.460
 30600, 59.941
 30660, 61.685
 30720, 62.935
 30780, 60.410
 30840, 64.937
 30900, 72.415
 30960, 58.889
 31020, 38.426
 31080, 47.848
 31140, 49.724
 31200, 56.724
 31260, 54.200
 31320, 51.283
 31380, 48.274
 31440, 62.306
 31500, 57.587
 31560, 47.885
 31620, 51.744
 31680, 54.740
 31740, 62.995
 31800, 64.736
 31860, 55.054
 31920, 55.226
 31980, 49.133
 32040, 43.996
 32100, 56.040
 32160, 48.519
 32220, 48.166
 32280, 47.941
 32340, 43.057
 32400, 62.064
 32460, 50.839
 32520, 53.351
 32580, 46.632
 32640, 44.811
 32700, 63.673
 32760, 58.893
 32820, 37.461
 32880, 34.895
 32940, 50.384
 33000, 43.458
 33060, 43.391
 33120, 43.141
 33180, 53.598
 33240, 52.610
 33300, 53.980
 33360, 59.433
 33420, 50.905
 33480, 56.570
 33540, 58.789
 33600, 57.812
 33660, 48.712
 33720, 42.232
 33780, 61.478
 33840, 59.865
 33900, 52.018
 33960, 58.224
 34020, 68.710
 34080, 71.051
 34140, 66.696
 34200, 57.855
 34260, 65.317
 34320, 62.724
 34380, 77.222
 34440, 67.072
 34500, 58.855
 34560, 52.523
 34620, 59.330
 34680, 60.993
 34740, 60.076
 34800, 52.856
 34860, 58.259
 34920, 62.688
 34980, 49.683
 35040, 53.547
 35100, 60.939
 35160, 58.226
 35220, 56.963
 35280, 52.830
 35340, 46.963
 35400, 43.485
 35460, 57.593
 35520, 66.108
 35580, 58.062
 35640, 46.690
 35700, 55.547
 35760, 62.730
 35820, 68.307
 35880, 61.619
 35940, 59.850
 36000, 65.219
 36060, -9999.000
 36120, 61.918
 36180, 64.603
 36240, 60.050
 36300, 66.234
 36360, 69.577
 36420, 65.978
 36480, 67.306
 36540, 71.070
 36600, 67.304
 36660, 63.720
 36720, 63.522
 36780, 75.034
 36840, 71.210
 36900, 65.328
 36960, 75.273
 37020, 75.843
 37080, 72.709
 37140, 71.256
 37200, 73.180
 37260, 67.716
 37320, 71.175
 37380, 79.155
 37440, 82.025
 37500, 73.853
 37560, 71.206
 37620, 87.692
 37680, 101.737
 37740, 80.768
 37800, 77.128
 37860, 89.074
 37920, -9999.000
 37980, 83.416
 38040, 85.999
 38100, 88.163
 38160, 85.035
 38220, 94.414
 38280, 95.290
 38340, 93.441
 38400, 88.742
 38460, 105.672
 38520, 106.590
 38580, 99.617
 38640, 93.764
 38700, 94.143
 38760, 106.312
 38820, 91.031
 38880, 89.028
 38940, 86.035
 39000, 97.448
 39060, 87.677
 39120, 85.297
 39180, 82.891
 39240, 94.226
 39300, 90.777
 39360, 84.248
 39420, 74.264
 39480, 74.944
 39540, 74.726
 39600, 84.378
 39660, 80.229
 39720, 66.511
 39780, -9999.000
 39840, 71.618
 39900, 59.314
 39960, 62.311
 40020, 79.501
 40080, 73.278
 40140, 65.837
 40200, 71.095
 40260, 69.262
 40320, 66.047
 40380, 73.292
 40440, 75.593
 40500, 73.945
 40560, 67.671
 40620, 68.344
 40680, 68.803
 40740, 55.653
 40800, 67.986
 40860, 74.234
 40920, 77.637
 40980, 77.435
 41040, 80.773
 41100, 74.516
 41160, 80.112
 41220, 81.437
 41280, 114.633
 41340, 102.870
 41400, 98.463
 41460, 117.763
 41520, 115.794
 41580, 126.080
 41640, 93.325
 41700, 111.591
 41760, 118.391
 41820, 97.235
 41880, 88.332
 41940, 101.662
 42000, 104.600
 42060, 104.123
 42120, 109.167
 42180, 101.321
 42240, 106.451
 42300, 119.211
 42360, 124.324
 42420, 107.361
 42480, 106.030
 42540, 98.038
 42600, 101.961
 42660, 95.491
 42720, 96.288
 42780, 103.499
 42840, 114.858
 42900, 109.143
 42960, 103.616
 43020, 89.977
 43080, 101.486
 43140, 104.084
 43200, 102.119
 43260, 95.392
 43320, 82.214
 43380, 85.237
 43440, -9999.000
 43500, 88.896
 43560, 66.578
 43620, 83.815
 43680, 73.028
 43740, 73.999
 43800, 62.156
 43860, 76.376
 43920, 66.452
 43980, 72.404
 44040, 80.048
 44100, 67.147
 44160, 66.179
 44220, 74.848
 44280, 95.857
 44340, 66.047
 44400, 73.980
 44460, 84.362
 44520, 67.406
 44580, 62.562
 44640, 71.457
 44700, 62.644
 44760, 52.915
 44820, 74.082
 44880, 73.018
 44940, 77.591
 45000, 76.371
 45060, 74.677
 45120, 73.081
 45180, 85.504
 45240, 90.610
 45300, 73.381
 45360, 70.268
 45420, 77.373
 45480, 67.251
 45540, 54.613
 45600, 78.526
 45660, 79.956
 45720, 85.162
 45780, 75.134
 45840, 74.462
 45900, 92.328
 45960, 72.203
 46020, 62.087
 46080, 65.041
 46140, 56.214
 46200, 60.106
 46260, 72.309
 46320, 67.994
 46380, 60.592
 46440, 60.129
 46500, 69.867
 46560, 57.275
 46620, 52.419
 46680, 65.760
 46740, 62.147
 46800, 62.812
 46860, 108.689
 46920, 99.787
 46980, 84.223
 47040, 76.765
 47100, 78.954
 47160, -9999.000
 47220, 73.112
 47280, 72.797
 47340, 79.880
 47400, 85.910
 47460, 86.086
 47520, 104.562
 47580, 74.490
 47640, 75.668
 47700, 106.630
 47760, 89.964
 47820, 78.267
 47880, 85.613
 47940, 92.140
 48000, 105.174
 48060, 112.922
 48120, 115.468
 48180, 121.540
 48240, 96.245
 48300, 94.095
 48360, 110.463
 48420, 96.387
 48480, 96.840
 48540, 113.477
 48600, 113.861
 48660, 97.973
 48720, 111.455
 48780, 106.037
 48840, 130.293
 48900, 101.223
 48960, 119.616
 49020, 121.790
 49080, 134.973
 49140, 122.511
 49200, 102.048
 49260, 120.673
 49320, 135.556
 49380, 150.271
 49440, 136.282
 49500, 129.623
 49560, 132.015
 49620, 132.247
 49680, 143.730
 49740, 146.102
 49800, 139.887
 49860, 160.370
 49920, 166.723
 49980, 142.947
 50040, 156.158
 50100, 161.883
 50160, 132.618
 50220, 147.986
 50280, 138.887
 50340, 135.791
 50400, 145.130
 50460, 153.315
 50520, 163.989
 50580, 153.005
 50640, 153.194
 50700, 161.235
 50760, 153.791
 50820, 161.075
 50880, 161.696
 50940, 142.639
 51000, 128.169
 51060, 137.444
 51120, 135.801
 51180, 135.356
 51240, 119.743
 51300, 104.325
 51360, 124.783
 51420, 118.678
 51480, 129.170
 51540, 111.530
 51600, 101.709
 51660, 90.351
 51720, 90.070
 51780, 101.725
 51840, 124.704
 51900, 92.736
 51960, 93.807
 52020, 122.416
 52080, 125.613
 52140, 115.204
 52200, 106.529
 52260, 105.813
 52320, 90.753
 52380, 107.933
 52440, 129.707
 52500, 94.888
 52560, 89.854
 52620, 124.708
 52680, 119.525
 52740, 139.454
 52800, 154.673
 52860, 134.218
 52920, 134.065
 52980, 148.070
 53040, 141.601
 53100, 132.446
 53160, 138.832
 53220, 132.411
 53280, 128.495
 53340, 159.393
 53400, 123.099
 53460, 141.001
 53520, 130.848
 53580, 108.611
 53640, 132.870
 53700, 144.193
 53760, 136.929
 53820, 145.913
 53880, 135.303
 53940, 126.051
 54000, 137.825
 54060, 143.864
 54120, 131.799
 54180, 132.689
 54240, 123.043
 54300, 132.254
 54360, 129.553
 54420, 125.317
 54480, 120.791
 54540, -9999.000
 54600, 111.564
 54660, 125.856
 54720, 133.999
 54780, 125.540
 54840, 133.382
 54900, 132.454
 54960, 114.914
 55020, 92.754
 55080, 110.341
 55140, 131.922
 55200, 91.151
 55260, 107.814
 55320, 107.315
 55380, 118.069
 55440, 120.422
 55500, 107.348
 55560, 108.919
 55620, 136.015
 55680, 126.539
 55740, 140.557
 55800, 115.421
 55860, 119.702
 55920, 138.536
 55980, 128.531
 56040, 122.142
 56100, 124.891
 56160, 121.823
 56220, 118.089
 56280, 125.371
 56340, 117.497
 56400, -9999.000
 56460, 127.841
 56520, 125.942
 56580, 118.149
 56640, 112.014
 56700, 142.297
 56760, 134.679
 56820, 143.619
 56880, 128.998
 56940, 130.287
 57000, 140.588
 57060, 136.775
 57120, 156.139
 57180, 142.385
 57240, 135.861
 57300, 129.197
 57360, 122.455
 57420, 133.180
 57480, 118.707
 57540, 113.115
 57600, 107.061
 57660, 110.415
 57720, 127.469
 57780, 140.383
 57840, 115.690
 57900, 120.045
 57960, 115.489
 58020, 131.657
 58080, 134.701
 58140, 142.210
 58200, 122.688
 58260, -9999.000
 58320, 132.938
 58380, 130.867
 58440, 138.533
 58500, 134.389
 58560, 126.432
 58620, 127.665
 58680, 111.798
 58740, 120.892
 58800, 131.245
 58860, 109.810
 58920, 109.420
 58980, 111.634
 59040, 100.859
 59100, 101.090
 59160, 89.717
 59220, 92.766
 59280, 137.120
 59340, 110.643
 59400, 107.229
 59460, 115.650
 59520, 103.984
 59580, 101.464
 59640, 98.361
 59700, 115.828
 59760, 113.264
 59820, 117.506
 59880, 121.232
 59940, 80.603
 60000, 102.060
 60060, 132.511
 60120, 126.438
 60180, 120.448
 60240, 96.914
 60300, 107.175
 60360, 113.109
 60420, 102.860
 60480, 97.704
 60540, 102.603
 60600, 85.791
 60660, 90.393
 60720, 85.792
 60780, 80.877
 60840, 98.456
 60900, 99.886
 60960, 95.134
 61020, 85.344
 61080, 103.796
 61140, 105.686
 61200, 79.810
 61260, 74.993
 61320, 80.981
 61380, 91.937
 61440, 84.523
 61500, 98.504
 61560, 83.513
 61620, 88.621
 61680, 82.435
 61740, 91.131
 61800, 91.220
 61860, 91.602
 61920, -9999.000
 61980, 97.141
 62040, 95.408
 62100, 103.356
 62160, 100.807
 62220, 104.323
 62280, 94.604
 62340, 90.009
 62400, 91.391
 62460, 87.446
 62520, 95.841
 62580, 101.720
 62640, 103.903
 62700, 100.935
 62760, 110.459
 62820, 101.308
 62880, 106.447
 62940, 93.726
 63000, 90.099
 63060, 97.556
 63120, 97.532
 63180, 88.177
 63240, 88.655
 63300, 85.272
 63360, 84.730
 63420, 81.749
 63480, 84.638
 63540, 92.491
 63600, 96.694
 63660, 92.725
 63720, 79.134
 63780, 79.993
 63840, 93.825
 63900, 83.346
 63960, 98.301
 64020, 96.548
 64080, 85.116
 64140, 89.317
 64200, 93.643
 64260, 85.893
 64320, 95.030
 64380, 107.721
 64440, 114.039
 64500, 101.505
 64560, 111.892
 64620, 123.567
 64680, 98.998
 64740, 106.858
 64800, 103.671
 64860, 103.866
 64920, 87.463
 64980, 98.360
 65040, 101.445
 65100, 91.568
 65160, 97.167
 65220, 94.908
 65280, 111.367
 65340, 110.116
 65400, 118.272
 65460, 112.048
 65520, 95.257
 65580, 89.980
 65640, -9999.000
 65700, 88.219
 65760, 89.015
 65820, 95.513
 65880, 106.876
 65940, 90.478
 66000, 102.693
 66060, 90.325
 66120, 72.338
 66180, 90.132
 66240, 91.953
 66300, 88.208
 66360, 82.427
 66420, 86.043
 66480, 84.967
 66540, 85.496
 66600, 81.267
 66660, 78.020
 66720, 81.283
 66780, 81.453
 66840, 83.418
 66900, 69.964
 66960, 66.055
 67020, 76.697
 67080, 76.619
 67140, 83.647
 67200, 81.945
 67260, 81.299
 67320, 60.957
 67380, 60.576
 67440, 62.951
 67500, 55.459
 67560, 73.478
 67620, 79.228
 67680, 72.414
 67740, 71.811
 67800, 66.541
 67860, 75.438
 67920, 67.813
 67980, 56.812
 68040, 71.482
 68100, 71.579
 68160, 71.071
 68220, 66.119
 68280, 65.358
 68340, 61.463
 68400, 74.695
 68460, 74.835
 68520, 63.139
 68580, 78.490
 68640, 69.296
 68700, 67.699
 68760, 77.334
 68820, 67.399
 68880, 68.719
 68940, 66.991
 69000, 68.620
 69060, 72.091
 69120, 86.743
 69180, 89.081
 69240, 81.081
 69300, 75.495
 69360, 51.261
 69420, 70.551
 69480, 73.455
 69540, 69.940
 69600, 61.175
 69660, 83.644
 69720, 66.186
 69780, 62.032
 69840, 63.816
 69900, 71.166
 69960, 66.708
 70020, 65.930
 70080, 62.067
 70140, 68.360
 70200, 58.580
 70260, 83.635
 70320, 54.890
 70380, 68.375
 70440, 67.614
 70500, 55.303
 70560, 61.593
 70620, 73.259
 70680, 60.935
 70740, 77.606
 70800, 48.384
 70860, 64.085
 70920, 74.443
 70980, 73.067
 71040, 69.981
 71100, 61.797
 71160, 75.597
 71220, 69.191
 71280, 67.374
 71340, 86.823
 71400, 89.670
 71460, 70.164
 71520, 56.693
 71580, 57.571
 71640, 61.264
 71700, 70.268
 71760, 70.955
 71820, 75.833
 71880, 81.523
 71940, 78.675
 72000, 67.324
 72060, 61.816
 72120, 58.928
 72180, 67.215
 72240, 58.845
 72300, 56.669
 72360, 58.719
 72420, 50.102
 72480, 53.606
 72540, 55.825
 72600, 48.091
 72660, 61.748
 72720, 69.318
 72780, 52.686
 72840, 60.735
 72900, 65.666
 72960, 53.770
 73020, -9999.000
 73080, 55.670
 73140, 57.030
 73200, 61.641
 73260, 50.991
 73320, 52.117
 73380, 60.668
 73440, 52.301
 73500, 54.005
 73560, 48.391
 73620, 47.482
 73680, 49.513
 73740, 51.247
 73800, 51.465
 73860, 54.569
 73920, 64.749
 73980, 63.070
 74040, 59.165
 74100, 60.141
 74160, 57.289
 74220, 58.631
 74280, 54.777
 74340, 63.769
 74400, 69.894
 74460, 75.806
 74520, 67.454
 74580, 48.796
 74640, 46.374
 74700, 49.592
 74760, 63.307
 74820, 56.000
 74880, -9999.000
 74940, 58.282
 75000, 48.312
 75060, 57.682
 75120, 47.853
 75180, 53.628
 75240, 55.227
 75300, 47.295
 75360, 46.798
 75420, 47.142
 75480, 46.064
 75540, 48.536
 75600, 55.117
 75660, 51.085
 75720, 50.449
 75780, 53.592
 75840, 67.323
 75900, 65.258
 75960, 63.480
 76020, 72.555
 76080, 57.311
 76140, 59.524
 76200, 58.834
 76260, 48.330
 76320, 43.883
 76380, 49.200
 76440, 39.290
 76500, 39.640
 76560, 49.286
 76620, 42.908
 76680, 45.262
 76740, -9999.000
 76800, 51.187
 76860, 42.666
 76920, 49.854
 76980, 44.550
 77040, 43.959
 77100, 48.980
 77160, 47.105
 77220, 52.939
 77280, 54.450
 77340, 63.799
 77400, 62.367
 77460, 58.002
 77520, 78.176
 77580, 48.933
 77640, 44.789
 77700, 54.807
 77760, 53.342
 77820, 43.553
 77880, 49.031
 77940, 37.200
 78000, 43.133
 78060, 40.550
 78120, 52.984
 78180, 61.619
 78240, 50.897
 78300, 58.806
 78360, 47.880
 78420, 45.943
 78480, 46.781
 78540, 34.711
 78600, 57.634
 78660, 34.353
 78720, 39.790
 78780, 41.864
 78840, 42.377
 78900, 40.339
 78960, 48.669
 79020, 51.416
 79080, 47.062
 79140, 39.245
 79200, 46.036
 79260, 47.231
 79320, 37.268
 79380, 37.926
 79440, 29.909
 79500, 35.356
 79560, 35.075
 79620, 42.241
 79680, 54.946
 79740, 42.916
 79800, 35.316
 79860, 34.974
 79920, 30.718
 79980, 34.029
 80040, 35.461
 80100, 30.783
 80160, 31.546
 80220, 33.395
 80280, 31.261
 80340, 39.188
 80400, -9999.000
 80460, 48.185
 80520, 28.407
 80580, 34.395
 80640, 30.128
 80700, 33.420
 80760, 24.553
 80820, 28.804
 80880, 30.391
 80940, 41.249
 81000, 39.153
 81060, 39.865
 81120, 36.492
 81180, 33.095
 81240, 30.227
 81300, 34.754
 81360, 30.966
 81420, 35.923
 81480, 24.192
 81540, 27.360
 81600, 23.559
 81660, 26.233
 81720, 26.252
 81780, 16.158
 81840, 23.729
 81900, 25.064
 81960, 23.908
 82020, 21.335
 82080, 24.129
 82140, 22.542
 82200, 19.436
 82260, -9999.000
 82320, 24.072
 82380, 22.262
 82440, 21.817
 82500, 20.735
 82560, 20.002
 82620, 53.272
 82680, 20.882
 82740, 23.108
 82800, 27.985
 82860, 27.348
 82920, 22.873
 82980, 28.941
 83040, 14.607
 83100, 23.605
 83160, 24.705
 83220, 30.270
 83280, 25.761
 83340, 32.321
 83400, 28.077
 83460, 24.184
 83520, 19.234
 83580, 15.274
 83640, 22.367
 83700, 24.350
 83760, 26.685
 83820, 17.908
 83880, 27.339
 83940, 25.962
 84000, 24.633
 84060, 29.439
 84120, -9999.000
 84180, 31.456
 84240, 31.315
 84300, 33.631
 84360, 39.538
 84420, 41.542
 84480, 35.569
 84540, 34.846
 84600, 28.449
 84660, 31.969
 84720, 28.525
 84780, 30.783
 84840, 34.860
 84900, 32.275
 84960, 38.439
 85020, 36.438
 85080, 33.013
 85140, 29.927
 85200, 33.774
 85260, 30.137
 85320, 38.672
 85380, 41.176
 85440, 44.479
 85500, 40.957
 85560, 42.157
 85620, 32.792
 85680, 44.414
 85740, 49.914
 85800, 54.650
 85860, 39.313
 85920, 48.823
 85980, 41.806
 86040, 43.752
 86100, 43.262
 86160, 42.446
 86220, 24.768
 86280, 24.259
 86340, 17.977
