33, 1001
Michael A Robinson, Chris Jernigan, Subi Thakali
NOAA ESRL Chemical Sciences Laboratory and CIRES, U. of Colorado
NOAA Iodide CIMS Instrument
USOS
1, 1
2024, 08, 07, 2024, 08, 08
1
starttime_UTC, seconds_past_midnight, seconds_of_day_since_00:00:00_UTC
1
1
-9999
HNO2_NOAACIMS, pptv, Gas_HNO2_InSitu_S_AVMR, 
0
18
PI_CONTACT_INFO: 325 Broadway, R/CSD 7, Boulder, Colorado 80305; michael.a.robinson@noaa.gov; chris.jernigan@noaa.gov;
PLATFORM: NOAA CSL Mobile Lab
LOCATION: SLC, Utah
ASSOCIATED_DATA: 1Hz data also available on request.
INSTRUMENT_INFO: NOAA I- ToF CIMS
DATA_INFO: All data in parts per trillion by volume (pptv). 1 Hz data is available upon request.
UNCERTAINTY: TBD
ULOD_FLAG: -7777
ULOD_VALUE: N/A
LLOD_FLAG: -8888
LLOD_VALUE: N/A
DM_CONTACT_INFO: Nathan Howard; nathan.h.howard@noaa.gov
PROJECT_INFO: USOS, summer 2024. https://csl.noaa.gov/groups/csl7/measurements/2024usos/
STIPULATIONS_ON_USE: Users are strongly encouraged to contact the PI for proper data usage.
OTHER_COMMENTS: 
REVISION: RA
RA: Preliminary Data; For in-field use only
starttime_UTC, HNO2_NOAACIMS
     0,  9.410
    60, 13.859
   120,  6.324
   180,  5.580
   240,  8.573
   300, 12.139
   360,  6.781
   420,  6.364
   480,  8.145
   540,  9.387
   600,  9.184
   660, 16.782
   720,  8.969
   780,  9.043
   840,  9.233
   900, 11.079
   960,  9.363
  1020,  6.474
  1080, 12.596
  1140,  9.219
  1200, 12.422
  1260, -9999.000
  1320, 10.782
  1380,  8.916
  1440, 11.527
  1500,  6.365
  1560,  6.561
  1620,  7.462
  1680,  8.499
  1740,  3.940
  1800,  7.298
  1860,  8.169
  1920,  7.989
  1980,  0.757
  2040,  7.189
  2100,  9.937
  2160,  8.182
  2220,  8.766
  2280,  6.677
  2340,  9.845
  2400, -9999.000
  2460, -9999.000
  2520, -9999.000
  2580, -9999.000
  2640, -9999.000
  2700, -9999.000
  2760, -9999.000
  2820, -9999.000
  2880, -9999.000
  2940, -9999.000
  3000, -9999.000
  3060, -9999.000
  3120, -9999.000
  3180, -9999.000
  3240, -9999.000
  3300, -9999.000
  3360, -9999.000
  3420, -9999.000
  3480, -9999.000
  3540, -9999.000
  3600, -9999.000
  3660, -9999.000
  3720, -9999.000
  3780, -9999.000
  3840, -9999.000
  3900, -9999.000
  3960, -9999.000
  4020, -9999.000
  4080, -9999.000
  4140, -9999.000
  4200, -9999.000
  4260, -9999.000
  4320, -9999.000
  4380, -9999.000
  4440, -9999.000
  4500, -9999.000
  4560, -9999.000
  4620, -9999.000
  4680, -9999.000
  4740, -9999.000
  4800, -9999.000
  4860, -9999.000
  4920, -9999.000
  4980, -9999.000
  5040, -9999.000
  5100, -9999.000
  5160, -9999.000
  5220, -9999.000
  5280, -9999.000
  5340, -9999.000
  5400, -9999.000
  5460, -9999.000
  5520, -9999.000
  5580, -9999.000
  5640, -9999.000
  5700, -9999.000
  5760, -9999.000
  5820, -9999.000
  5880, -9999.000
  5940,  5.229
  6000,  4.684
  6060,  4.102
  6120,  6.811
  6180,  9.046
  6240,  6.699
  6300,  6.735
  6360, 34.547
  6420, 20.885
  6480, 16.777
  6540, 24.033
  6600, 28.464
  6660, 27.097
  6720, 21.623
  6780, -9999.000
  6840, 25.154
  6900, 39.529
  6960, 38.239
  7020, 31.436
  7080, 31.374
  7140, 32.046
  7200, 34.145
  7260, 34.445
  7320, 35.861
  7380, 51.680
  7440, 49.132
  7500, 45.453
  7560, 48.885
  7620, 50.019
  7680, 44.049
  7740, 32.219
  7800, 27.953
  7860, 38.659
  7920, 50.872
  7980, 48.709
  8040, 53.714
  8100, 57.928
  8160, 62.203
  8220, 61.409
  8280, 56.740
  8340, 54.279
  8400, 66.027
  8460, 68.471
  8520, 61.633
  8580, 48.353
  8640, -9999.000
  8700, 57.640
  8760, 64.733
  8820, 68.098
  8880, 60.309
  8940, 58.718
  9000, 64.629
  9060, 49.662
  9120, 47.028
  9180, 47.567
  9240, 51.925
  9300, 43.348
  9360, 39.668
  9420, 38.592
  9480, 39.561
  9540, 38.365
  9600, 38.894
  9660, 39.340
  9720, 34.964
  9780, 35.466
  9840, 40.196
  9900, 33.745
  9960, 37.892
 10020, 41.487
 10080, 34.824
 10140, 39.525
 10200, 39.838
 10260, 29.719
 10320, 33.208
 10380, 38.938
 10440, 25.929
 10500, 28.022
 10560, 30.349
 10620, 30.927
 10680, 29.332
 10740, 27.494
 10800, 21.094
 10860, 28.775
 10920, 23.336
 10980, 21.404
 11040, 26.688
 11100, 27.984
 11160, 28.655
 11220, 31.389
 11280, 18.448
 11340, 23.562
 11400, 19.293
 11460, 16.462
 11520, 21.379
 11580, 26.197
 11640, 23.240
 11700, 18.858
 11760, 16.789
 11820, 23.005
 11880, 16.370
 11940, 18.395
 12000, 16.557
 12060, 23.952
 12120, 19.273
 12180, 19.844
 12240, 22.734
 12300, 14.622
 12360, 26.316
 12420, 22.677
 12480, 17.103
 12540, 18.684
 12600, 14.655
 12660, 17.763
 12720,  9.886
 12780, 16.337
 12840, 14.244
 12900, 16.179
 12960, 17.302
 13020, 17.286
 13080, 18.823
 13140, 16.632
 13200, 16.229
 13260, 17.539
 13320, 13.623
 13380, 16.460
 13440, 15.397
 13500, 18.182
 13560, 15.292
 13620, 11.020
 13680, 20.425
 13740, 14.451
 13800, 16.797
 13860, 19.782
 13920, 19.079
 13980, 18.021
 14040, 18.685
 14100, 20.164
 14160, 15.557
 14220, 18.174
 14280, 19.834
 14340, 20.767
 14400, 19.152
 14460, 14.420
 14520, 18.091
 14580, 20.215
 14640, 18.563
 14700, 18.468
 14760, 21.709
 14820, 23.731
 14880, 25.675
 14940, 14.044
 15000, 16.745
 15060, 19.509
 15120, 11.616
 15180, 19.993
 15240, 15.163
 15300, 14.601
 15360, 16.392
 15420, 26.884
 15480, 16.715
 15540, 19.323
 15600, 14.617
 15660, 19.913
 15720, 19.813
 15780, 21.768
 15840, 14.598
 15900, 18.283
 15960, 15.320
 16020, -9999.000
 16080, 14.188
 16140, 15.793
 16200, 17.104
 16260, 15.114
 16320, 11.816
 16380, 11.969
 16440, 11.647
 16500, 14.209
 16560, 14.362
 16620, 13.083
 16680, 11.877
 16740, 14.250
 16800, 23.762
 16860, 29.425
 16920, 41.202
 16980, 35.532
 17040, 19.838
 17100, 24.505
 17160, 33.565
 17220, 38.294
 17280, 43.241
 17340, 26.583
 17400, 21.068
 17460, 19.827
 17520, 20.920
 17580, 19.434
 17640, 14.772
 17700, 12.577
 17760, 17.480
 17820, 28.710
 17880, -9999.000
 17940, 30.331
 18000, 32.167
 18060, 27.741
 18120, 34.851
 18180, 26.367
 18240, 30.379
 18300, 36.887
 18360, 33.231
 18420, 25.436
 18480, 34.406
 18540, 35.750
 18600, 23.841
 18660, 35.660
 18720, 24.590
 18780, 25.719
 18840, 35.462
 18900, 46.750
 18960, 54.635
 19020, 65.175
 19080, 59.540
 19140, 47.415
 19200, 46.301
 19260, 49.654
 19320, 39.011
 19380, 51.288
 19440, 70.258
 19500, 80.016
 19560, 82.795
 19620, 83.603
 19680, 91.313
 19740, -9999.000
 19800, 81.904
 19860, 70.982
 19920, 67.631
 19980, 63.832
 20040, 68.112
 20100, 65.287
 20160, 75.008
 20220, 62.971
 20280, 82.171
 20340, 80.810
 20400, 77.168
 20460, 73.030
 20520, 75.556
 20580, 71.158
 20640, 75.638
 20700, 78.223
 20760, 77.185
 20820, 69.243
 20880, 56.532
 20940, 61.560
 21000, 53.846
 21060, 56.247
 21120, 57.212
 21180, 63.365
 21240, 65.340
 21300, 60.422
 21360, 60.119
 21420, 69.005
 21480, 77.512
 21540, 85.900
 21600, 67.607
 21660, 65.817
 21720, 76.379
 21780, 85.530
 21840, 68.180
 21900, 60.950
 21960, 63.622
 22020, 55.401
 22080, 66.294
 22140, 53.452
 22200, 57.862
 22260, 64.335
 22320, 58.335
 22380, 66.644
 22440, 69.434
 22500, 75.554
 22560, 68.309
 22620, 72.272
 22680, 65.867
 22740, 78.579
 22800, 74.308
 22860, 79.537
 22920, 81.997
 22980, 101.015
 23040, 101.229
 23100, 92.330
 23160, 95.921
 23220, 100.612
 23280, 103.676
 23340, 84.949
 23400, -9999.000
 23460, 74.089
 23520, 92.848
 23580, 83.538
 23640, 87.278
 23700, 78.906
 23760, 81.605
 23820, 79.338
 23880, 71.756
 23940, 53.156
 24000, 66.684
 24060, 77.079
 24120, 72.840
 24180, 84.378
 24240, 65.970
 24300, 65.648
 24360, 77.182
 24420, 59.954
 24480, 54.414
 24540, 74.276
 24600, 97.458
 24660, 67.039
 24720, 63.678
 24780, 63.803
 24840, 63.602
 24900, 54.916
 24960, 54.212
 25020, 74.221
 25080, 85.809
 25140, 64.803
 25200, 91.378
 25260, -9999.000
 25320, 101.488
 25380, 88.252
 25440, 80.839
 25500, 95.104
 25560, 91.821
 25620, 102.228
 25680, 98.040
 25740, 95.263
 25800, 103.027
 25860, 92.361
 25920, 115.149
 25980, 161.132
 26040, 118.518
 26100, 122.824
 26160, 100.913
 26220, 104.124
 26280, 106.719
 26340, 80.431
 26400, 119.623
 26460, 126.786
 26520, 86.849
 26580, 109.280
 26640, 101.985
 26700, 121.823
 26760, 86.572
 26820, 140.220
 26880, 113.554
 26940, 66.433
 27000, 92.060
 27060, 78.685
 27120, -9999.000
 27180, 106.412
 27240, 69.855
 27300, 103.975
 27360, 127.447
 27420, 115.335
 27480, 101.026
 27540, 94.462
 27600, 98.527
 27660, 73.085
 27720, 63.843
 27780, 84.081
 27840, 92.778
 27900, 88.797
 27960, 98.881
 28020, 116.369
 28080, 128.198
 28140, 141.287
 28200, 132.181
 28260, 105.806
 28320, 111.467
 28380, 131.738
 28440, 137.819
 28500, 105.258
 28560, 100.304
 28620, 120.016
 28680, 105.819
 28740, 114.814
 28800, 112.308
 28860, 93.423
 28920, 114.854
 28980, 113.074
 29040, 115.020
 29100, 103.468
 29160, 110.539
 29220, 131.461
 29280, 116.796
 29340, 123.773
 29400, 127.362
 29460, 125.560
 29520, 133.228
 29580, 132.471
 29640, 127.395
 29700, 148.490
 29760, 139.643
 29820, 158.307
 29880, 169.417
 29940, 163.210
 30000, 161.507
 30060, 170.269
 30120, 168.025
 30180, 165.101
 30240, 178.049
 30300, 167.633
 30360, 184.594
 30420, 184.251
 30480, 176.602
 30540, 185.800
 30600, 174.474
 30660, 194.770
 30720, 208.410
 30780, 211.500
 30840, 197.084
 30900, 197.631
 30960, 185.045
 31020, 193.964
 31080, 180.758
 31140, 180.962
 31200, 164.302
 31260, 165.251
 31320, 151.967
 31380, 122.064
 31440, 136.405
 31500, 121.508
 31560, 105.576
 31620, 107.791
 31680, 123.066
 31740, 101.987
 31800, 97.592
 31860, 89.090
 31920, 89.366
 31980, 79.188
 32040, 79.408
 32100, 91.878
 32160, 83.494
 32220, 58.849
 32280, 75.444
 32340, 57.719
 32400, 69.331
 32460, 66.739
 32520, 53.474
 32580, 77.142
 32640, 99.200
 32700, 52.311
 32760, 67.636
 32820, 65.550
 32880, 63.969
 32940, 71.212
 33000, 71.446
 33060, 78.069
 33120, 61.929
 33180, 64.915
 33240, 64.811
 33300, 65.390
 33360, 72.995
 33420, 78.866
 33480, 59.790
 33540, 74.939
 33600, 57.381
 33660, 70.791
 33720, 81.472
 33780, 65.401
 33840, 73.844
 33900, 77.236
 33960, 93.675
 34020, 96.049
 34080, 93.725
 34140, 109.509
 34200, 100.299
 34260, 96.246
 34320, 105.986
 34380, 84.073
 34440, 93.886
 34500, -9999.000
 34560, 115.162
 34620, 146.464
 34680, 108.208
 34740, 60.140
 34800, 75.132
 34860, 57.204
 34920, 64.634
 34980, 54.113
 35040, 62.532
 35100, 102.873
 35160, 113.646
 35220, 125.261
 35280, 127.923
 35340, 129.166
 35400, 126.032
 35460, 119.628
 35520, 118.180
 35580, 128.632
 35640, 131.739
 35700, 111.171
 35760, 120.825
 35820, 146.591
 35880, 128.102
 35940, 119.195
 36000, 112.142
 36060, 145.942
 36120, 147.681
 36180, 111.088
 36240, 128.929
 36300, 157.374
 36360, 160.815
 36420, 169.235
 36480, 175.223
 36540, 174.202
 36600, 186.288
 36660, 164.595
 36720, 166.670
 36780, 158.019
 36840, 159.003
 36900, 137.529
 36960, 144.331
 37020, 161.276
 37080, 150.952
 37140, 149.079
 37200, 131.098
 37260, 128.275
 37320, 143.262
 37380, 162.146
 37440, 153.225
 37500, 92.340
 37560, 100.858
 37620, 99.067
 37680, 95.895
 37740, 125.136
 37800, 116.056
 37860, 118.847
 37920, 89.531
 37980, 118.673
 38040, 94.837
 38100, 102.346
 38160, 123.510
 38220, 178.735
 38280, 151.414
 38340, 128.484
 38400, 123.146
 38460, 138.981
 38520, 135.997
 38580, 148.161
 38640, 149.894
 38700, 141.519
 38760, 142.781
 38820, 115.833
 38880, 133.124
 38940, 162.327
 39000, 151.959
 39060, 156.524
 39120, 180.517
 39180, 136.580
 39240, 161.001
 39300, 170.828
 39360, 159.431
 39420, 184.930
 39480, 170.604
 39540, 167.065
 39600, 169.590
 39660, 172.222
 39720, 157.075
 39780, 174.959
 39840, 185.854
 39900, 161.660
 39960, 191.490
 40020, 171.145
 40080, 181.745
 40140, 189.874
 40200, 209.548
 40260, 255.953
 40320, 173.757
 40380, 192.857
 40440, 188.630
 40500, 202.865
 40560, 187.690
 40620, 167.930
 40680, 172.367
 40740, 182.333
 40800, 166.940
 40860, 152.455
 40920, 187.912
 40980, 176.660
 41040, 178.775
 41100, 217.807
 41160, 199.668
 41220, 230.513
 41280, 213.951
 41340, 182.952
 41400, 196.091
 41460, 190.784
 41520, 176.003
 41580, 209.394
 41640, 222.386
 41700, 161.320
 41760, 154.428
 41820, 142.381
 41880, -9999.000
 41940, 142.460
 42000, 147.278
 42060, 128.208
 42120, 121.660
 42180, 103.774
 42240, 117.349
 42300, 125.221
 42360, 131.257
 42420, 125.398
 42480, 149.913
 42540, 139.851
 42600, 135.575
 42660, 160.876
 42720, 176.791
 42780, 136.343
 42840, 158.590
 42900, 152.471
 42960, 160.048
 43020, 170.901
 43080, 195.878
 43140, 178.435
 43200, 166.881
 43260, 143.742
 43320, 167.636
 43380, 174.643
 43440, 216.926
 43500, 232.653
 43560, 250.802
 43620, 203.076
 43680, 175.897
 43740, -9999.000
 43800, 162.802
 43860, 158.983
 43920, 172.785
 43980, 157.495
 44040, 163.169
 44100, 162.275
 44160, 189.301
 44220, 216.731
 44280, 222.363
 44340, 193.799
 44400, 208.770
 44460, 207.306
 44520, 199.638
 44580, 219.070
 44640, 252.010
 44700, 243.235
 44760, 226.102
 44820, 214.747
 44880, 206.450
 44940, 207.007
 45000, 197.274
 45060, 155.245
 45120, 168.101
 45180, 174.176
 45240, 142.068
 45300, 161.010
 45360, 143.255
 45420, 131.935
 45480, 127.300
 45540, 131.098
 45600, -9999.000
 45660, 141.365
 45720, 151.186
 45780, 137.796
 45840, 159.310
 45900, 187.690
 45960, 160.525
 46020, 184.034
 46080, 176.776
 46140, 180.325
 46200, 184.796
 46260, 203.905
 46320, 174.481
 46380, 193.744
 46440, 186.418
 46500, 128.432
 46560, 146.857
 46620, 151.452
 46680, 116.435
 46740, 168.002
 46800, 218.533
 46860, 232.354
 46920, 198.064
 46980, 179.246
 47040, 162.985
 47100, 166.660
 47160, 192.593
 47220, 176.227
 47280, 121.403
 47340, 137.683
 47400, 126.270
 47460, 167.749
 47520, 141.629
 47580, 118.135
 47640, 143.083
 47700, 127.196
 47760, 136.171
 47820, 157.345
 47880, 378.042
 47940, 390.561
 48000, 167.876
 48060, 266.260
 48120, 198.985
 48180, 187.729
 48240, 154.019
 48300, 175.031
 48360, 165.209
 48420, 158.345
 48480, 139.665
 48540, 119.115
 48600, 145.107
 48660, 150.893
 48720, 170.289
 48780, 164.936
 48840, 178.573
 48900, 169.914
 48960, 167.274
 49020, 155.225
 49080, 149.646
 49140, 162.299
 49200, 155.249
 49260, -9999.000
 49320, 127.609
 49380, 164.021
 49440, 146.889
 49500, 154.682
 49560, 152.846
 49620, 157.046
 49680, 173.208
 49740, 165.151
 49800, 196.688
 49860, 207.525
 49920, 209.713
 49980, 240.062
 50040, 208.011
 50100, 178.598
 50160, 185.248
 50220, 204.307
 50280, 206.739
 50340, 188.122
 50400, 228.967
 50460, 212.398
 50520, 220.889
 50580, 224.754
 50640, 215.047
 50700, 192.646
 50760, 166.000
 50820, 188.518
 50880, 190.872
 50940, 243.051
 51000, 230.269
 51060, 216.658
 51120, -9999.000
 51180, 152.606
 51240, 180.785
 51300, 184.574
 51360, 142.930
 51420, 182.496
 51480, 182.085
 51540, 207.662
 51600, 182.503
 51660, 181.164
 51720, 168.356
 51780, 143.436
 51840, 139.899
 51900, 181.395
 51960, 169.277
 52020, 110.509
 52080, 107.592
 52140, 107.460
 52200, 117.396
 52260, 114.845
 52320, 94.809
 52380, 95.067
 52440, 97.017
 52500, 125.586
 52560, 124.408
 52620, 68.737
 52680, 66.139
 52740, 66.434
 52800, 67.570
 52860, 103.166
 52920, 96.824
 52980, -9999.000
 53040, 86.424
 53100, 94.375
 53160, 69.429
 53220, 94.760
 53280, 87.453
 53340, 90.461
 53400, 104.423
 53460, 91.583
 53520, 76.325
 53580, 95.014
 53640, 101.313
 53700, 90.015
 53760, 74.449
 53820, 84.996
 53880, 86.758
 53940, 94.102
 54000, 75.185
 54060, 97.291
 54120, 129.015
 54180, 107.716
 54240, 87.856
 54300, 94.937
 54360, 81.526
 54420, 89.179
 54480, 82.660
 54540, 93.767
 54600, 92.852
 54660, 88.708
 54720, 105.657
 54780, 107.045
 54840, 87.427
 54900, 114.798
 54960, 114.917
 55020, 90.069
 55080, 98.675
 55140, 108.489
 55200, 93.605
 55260, 116.166
 55320, 91.760
 55380, 93.289
 55440, 91.978
 55500, 108.652
 55560, 124.566
 55620, 78.530
 55680, 91.249
 55740, 107.284
 55800, 68.943
 55860, 86.299
 55920, 72.476
 55980, 81.722
 56040, 90.509
 56100, 74.522
 56160, 83.986
 56220, 97.679
 56280, 86.324
 56340, 82.423
 56400, 96.149
 56460, 76.188
 56520, 78.815
 56580, 67.696
 56640, 75.987
 56700, 118.562
 56760, 98.884
 56820, 121.259
 56880, 94.607
 56940, 92.205
 57000, 75.523
 57060, 85.632
 57120, 84.706
 57180, 85.359
 57240, 102.361
 57300, 86.425
 57360, 76.956
 57420, 83.814
 57480, 93.874
 57540, 91.521
 57600, 97.045
 57660, 97.385
 57720, 93.242
 57780, 70.412
 57840, 64.537
 57900, 60.743
 57960, 75.101
 58020, 58.878
 58080, 68.128
 58140, 67.449
 58200, 62.016
 58260, 74.234
 58320, 69.011
 58380, 67.306
 58440, 70.887
 58500, 68.165
 58560, 82.034
 58620, 79.737
 58680, 83.252
 58740, 65.862
 58800, 66.252
 58860, 82.606
 58920, 110.550
 58980, 72.893
 59040, 76.670
 59100, 74.270
 59160, 70.154
 59220, 82.040
 59280, 65.877
 59340, 54.924
 59400, 73.278
 59460, 68.818
 59520, 79.244
 59580, 70.419
 59640, 63.874
 59700, 69.324
 59760, 69.054
 59820, 79.437
 59880, 78.900
 59940, 62.644
 60000, 98.644
 60060, 69.157
 60120, 65.028
 60180, 70.127
 60240, 59.870
 60300, 67.475
 60360, -9999.000
 60420, 72.472
 60480, 68.038
 60540, 55.909
 60600, 44.262
 60660, 49.518
 60720, 34.619
 60780, 46.756
 60840, 36.777
 60900, 51.302
 60960, 51.189
 61020, 83.238
 61080, 71.655
 61140, 62.227
 61200, 70.034
 61260, 76.454
 61320, 80.832
 61380, 80.313
 61440, 85.914
 61500, 94.940
 61560, 117.585
 61620, 80.509
 61680, 75.539
 61740, 80.071
 61800, 79.075
 61860, 74.997
 61920, 83.854
 61980, 71.027
 62040, 80.727
 62100, 72.858
 62160, 78.168
 62220, -9999.000
 62280, 80.473
 62340, 89.639
 62400, 88.000
 62460, 72.244
 62520, 81.325
 62580, 80.005
 62640, 109.861
 62700, 115.832
 62760, 97.324
 62820, 82.867
 62880, 85.726
 62940, 78.063
 63000, 102.810
 63060, 131.803
 63120, 98.826
 63180, 94.050
 63240, 97.743
 63300, 90.593
 63360, 74.723
 63420, 73.571
 63480, 68.240
 63540, 83.683
 63600, 80.705
 63660, 101.405
 63720, 104.025
 63780, 92.386
 63840, 90.871
 63900, 75.946
 63960, 83.493
 64020, 95.252
 64080, -9999.000
 64140, 78.423
 64200, 84.392
 64260, 68.812
 64320, 74.210
 64380, 65.074
 64440, 77.870
 64500, 91.705
 64560, 77.415
 64620, 74.439
 64680, 86.646
 64740, 82.675
 64800, 118.656
 64860, 125.240
 64920, 72.336
 64980, 90.296
 65040, 115.850
 65100, 91.612
 65160, 94.267
 65220, 91.190
 65280, 107.870
 65340, 84.190
 65400, 102.121
 65460, 91.970
 65520, 87.752
 65580, 103.759
 65640, 99.684
 65700, 91.247
 65760, 103.874
 65820, 83.855
 65880, 78.698
 65940, 95.738
 66000, 73.950
 66060, 76.582
 66120, 78.850
 66180, 93.944
 66240, 71.435
 66300, 86.604
 66360, 107.381
 66420, 84.765
 66480, 70.675
 66540, 78.975
 66600, 79.120
 66660, 81.464
 66720, 79.822
 66780, 69.516
 66840, 76.881
 66900, 64.254
 66960, 65.669
 67020, 79.260
 67080, 77.335
 67140, 80.225
 67200, 63.578
 67260, 68.617
 67320, 79.798
 67380, 58.168
 67440, 71.374
 67500, 68.247
 67560, 63.725
 67620, 54.981
 67680, 60.088
 67740, -9999.000
 67800, 83.562
 67860, 63.002
 67920, 59.445
 67980, 48.010
 68040, 72.011
 68100, 58.487
 68160, 68.976
 68220, 62.744
 68280, 76.671
 68340, 63.850
 68400, 66.994
 68460, 66.024
 68520, 56.791
 68580, 71.229
 68640, 62.297
 68700, 48.257
 68760, 57.561
 68820, 37.087
 68880, 59.875
 68940, 50.298
 69000, 48.429
 69060, 45.709
 69120, 53.071
 69180, 49.976
 69240, 54.189
 69300, 36.974
 69360, 53.141
 69420, 35.856
 69480, 33.338
 69540, 43.583
 69600, -9999.000
 69660, 22.946
 69720, 33.368
 69780, 47.771
 69840, 40.641
 69900, 35.751
 69960, 60.653
 70020, 39.248
 70080, 26.572
 70140, 32.481
 70200, 28.590
 70260, 33.380
 70320, 31.538
 70380, 39.419
 70440, 28.840
 70500, 26.155
 70560, 22.787
 70620, 34.806
 70680, 41.146
 70740, 42.998
 70800, 39.208
 70860, 41.511
 70920, 35.064
 70980, 65.205
 71040, 32.942
 71100, 35.777
 71160, 38.603
 71220, 31.442
 71280, 35.006
 71340, 40.989
 71400, 18.047
 71460, -9999.000
 71520, 30.770
 71580, 30.187
 71640, 33.784
 71700, 32.409
 71760, 39.816
 71820, 23.750
 71880, 35.568
 71940, 36.801
 72000, 28.985
 72060, 15.300
 72120, 26.064
 72180, 24.850
 72240, 49.628
 72300, 22.755
 72360, 29.105
 72420, 15.270
 72480, 24.578
 72540, 23.799
 72600, 16.603
 72660, 17.156
 72720, 20.800
 72780, 22.494
 72840, 19.965
 72900, 12.493
 72960, 31.677
 73020, 11.398
 73080, 35.225
 73140, 97.688
 73200, 32.118
 73260, 28.460
 73320, 81.808
 73380, 177.527
 73440, 850.532
 73500, 412.236
 73560, 469.341
 73620, 87.856
 73680, 268.133
 73740, 64.349
 73800, 86.829
 73860, 18.255
 73920, 10.610
 73980, 19.899
 74040, 10.960
 74100,  5.973
 74160,  6.025
 74220, 18.636
 74280, 10.040
 74340, 14.028
 74400, 26.180
 74460,  3.692
 74520,  7.843
 74580,  0.918
 74640,  3.070
 74700,  2.923
 74760,  0.175
 74820, -2.902
 74880,  3.388
 74940, -1.015
 75000,  2.943
 75060, -5.803
 75120, -14.733
 75180, -7.666
 75240,  1.096
 75300, -3.222
 75360,  3.004
 75420, -3.452
 75480,  2.665
 75540,  3.033
 75600, -4.985
 75660, -4.401
 75720, -1.467
 75780, -2.509
 75840, -2.518
 75900, -3.748
 75960, -2.287
 76020, -4.152
 76080, -0.017
 76140, -2.726
 76200, -0.121
 76260,  7.079
 76320,  2.245
 76380,  2.592
 76440, 15.137
 76500, 28.128
 76560, 54.728
 76620, 14.961
 76680, 19.922
 76740,  5.079
 76800,  6.749
 76860, 13.576
 76920, 30.274
 76980, 51.436
 77040,  4.743
 77100,  7.078
 77160,  1.716
 77220,  9.132
 77280,  3.055
 77340,  2.496
 77400, -4.325
 77460,  1.845
 77520,  2.714
 77580,  2.953
 77640, -2.186
 77700, -1.465
 77760, -2.223
 77820,  0.260
 77880, -1.258
 77940, -0.612
 78000,  2.373
 78060, 63.745
 78120,  1.026
 78180, 32.002
 78240,  4.348
 78300,  6.020
 78360,  3.301
 78420,  3.315
 78480,  2.266
 78540,  0.244
 78600,  1.572
 78660,  5.149
 78720,  1.347
 78780,  3.040
 78840, -9999.000
 78900,  0.516
 78960,  2.196
 79020,  5.904
 79080,  9.373
 79140,  4.967
 79200,  3.163
 79260,  5.096
 79320,  5.448
 79380,  2.140
 79440,  2.660
 79500,  3.219
 79560,  1.659
 79620,  2.349
 79680,  8.953
 79740,  3.506
 79800,  0.758
 79860,  5.151
 79920,  1.686
 79980,  3.944
 80040,  2.430
 80100,  3.017
 80160,  5.642
 80220,  3.131
 80280,  6.436
 80340,  4.305
 80400,  2.209
 80460,  2.347
 80520,  5.387
 80580,  3.525
 80640,  2.245
 80700, -12.135
 80760,  3.155
 80820,  2.568
 80880, 11.372
 80940, 16.078
 81000,  7.528
 81060,  1.983
 81120,  3.010
 81180,  4.739
 81240,  5.356
 81300,  5.639
 81360,  7.048
 81420,  6.334
 81480,  8.323
 81540,  8.953
 81600,  0.403
 81660,  3.833
 81720,  7.570
 81780,  2.213
 81840,  3.309
 81900,  3.128
 81960,  4.325
 82020,  6.347
 82080,  6.328
 82140,  7.642
 82200,  9.020
 82260,  3.605
 82320,  8.822
 82380, 11.188
 82440, 11.051
 82500,  8.289
 82560, -9999.000
 82620,  6.673
 82680,  5.865
 82740,  6.600
 82800,  9.919
 82860,  6.786
 82920,  9.121
 82980,  2.571
 83040,  7.030
 83100,  6.992
 83160,  9.247
 83220, 10.169
 83280, 16.468
 83340, 11.457
 83400,  5.674
 83460,  6.958
 83520,  7.704
 83580,  5.358
 83640,  6.815
 83700, 11.845
 83760,  9.198
 83820,  8.700
 83880, 11.135
 83940,  8.242
 84000,  9.192
 84060, 13.914
 84120, 13.063
 84180,  7.928
 84240, 10.064
 84300,  7.201
 84360,  8.788
 84420, 11.106
 84480, 11.221
 84540, 10.410
 84600, 13.915
 84660, 17.051
 84720, 12.263
 84780, 15.711
 84840, 14.797
 84900, 12.611
 84960,  2.801
 85020,  5.147
 85080,  6.818
 85140,  5.788
 85200,  4.403
 85260, 10.600
 85320,  9.148
 85380,  8.419
 85440,  8.687
 85500, 10.353
 85560,  7.494
 85620,  7.596
 85680,  8.143
 85740,  5.607
 85800,  6.449
 85860,  3.102
 85920,  6.895
 85980, 10.053
 86040, 15.381
 86100,  9.636
 86160, 10.242
 86220, -9999.000
 86280,  5.544
 86340,  8.966
