33, 1001
Michael A Robinson, Chris Jernigan, Subi Thakali
NOAA ESRL Chemical Sciences Laboratory and CIRES, U. of Colorado
NOAA Iodide CIMS Instrument
USOS
1, 1
2024, 07, 20, 2024, 07, 21
1
starttime_UTC, seconds_past_midnight, seconds_of_day_since_00:00:00_UTC
1
1
-9999
HNO2_NOAACIMS, pptv, Gas_HNO2_InSitu_S_AVMR, 
0
18
PI_CONTACT_INFO: 325 Broadway, R/CSD 7, Boulder, Colorado 80305; michael.a.robinson@noaa.gov; chris.jernigan@noaa.gov;
PLATFORM: NOAA CSL Mobile Lab
LOCATION: SLC, Utah
ASSOCIATED_DATA: 1Hz data also available on request.
INSTRUMENT_INFO: NOAA I- ToF CIMS
DATA_INFO: All data in parts per trillion by volume (pptv). 1 Hz data is available upon request.
UNCERTAINTY: TBD
ULOD_FLAG: -7777
ULOD_VALUE: N/A
LLOD_FLAG: -8888
LLOD_VALUE: N/A
DM_CONTACT_INFO: Nathan Howard; nathan.h.howard@noaa.gov
PROJECT_INFO: USOS, summer 2024. https://csl.noaa.gov/groups/csl7/measurements/2024usos/
STIPULATIONS_ON_USE: Users are strongly encouraged to contact the PI for proper data usage.
OTHER_COMMENTS: 
REVISION: RA
RA: Preliminary Data; For in-field use only
starttime_UTC, HNO2_NOAACIMS
     0, -1.287
    60, -3.667
   120, -3.255
   180, -1.598
   240, -1.447
   300,  0.091
   360, -1.326
   420,  0.888
   480, -0.870
   540,  2.080
   600,  0.631
   660,  1.937
   720,  0.155
   780,  1.274
   840,  5.649
   900, 10.857
   960,  6.989
  1020,  7.326
  1080,  1.291
  1140,  1.426
  1200,  0.941
  1260,  2.119
  1320,  1.561
  1380,  1.028
  1440,  1.534
  1500,  2.709
  1560,  1.420
  1620,  0.323
  1680, -0.585
  1740, -9999.000
  1800,  3.657
  1860,  3.796
  1920,  2.779
  1980,  5.400
  2040,  3.591
  2100,  2.941
  2160,  2.056
  2220,  2.293
  2280,  2.926
  2340,  4.625
  2400,  1.022
  2460,  1.452
  2520, -0.047
  2580,  3.541
  2640,  1.953
  2700,  2.067
  2760,  4.449
  2820,  5.538
  2880,  2.193
  2940,  4.047
  3000,  1.545
  3060,  3.631
  3120,  2.283
  3180,  6.675
  3240,  3.910
  3300,  7.841
  3360,  6.281
  3420,  5.458
  3480,  0.118
  3540,  6.746
  3600,  4.120
  3660,  4.259
  3720, -1.438
  3780,  0.489
  3840, -0.255
  3900,  0.079
  3960, -1.916
  4020, -1.379
  4080, -1.975
  4140, -0.792
  4200, -1.937
  4260,  0.658
  4320,  2.024
  4380, -0.618
  4440,  2.122
  4500,  0.129
  4560,  2.984
  4620,  4.501
  4680,  6.901
  4740,  3.887
  4800,  0.183
  4860, 10.130
  4920,  7.369
  4980,  6.015
  5040, 11.978
  5100,  8.997
  5160,  9.118
  5220, 10.633
  5280, 11.083
  5340, 16.445
  5400, -9999.000
  5460, 16.359
  5520, 14.835
  5580,  9.012
  5640, 12.990
  5700, 13.047
  5760, 13.979
  5820, 19.753
  5880,  5.849
  5940, 18.279
  6000,  5.892
  6060,  9.594
  6120,  5.222
  6180, 10.597
  6240,  9.102
  6300, 12.422
  6360,  7.478
  6420, 11.377
  6480, 11.080
  6540,  8.912
  6600,  8.428
  6660, 10.674
  6720, 13.641
  6780, 13.418
  6840, 16.775
  6900, 16.539
  6960, 22.121
  7020, 24.538
  7080, 22.167
  7140, 18.492
  7200, 23.213
  7260, -9999.000
  7320, 12.825
  7380, 15.721
  7440, 14.730
  7500, 13.070
  7560, 17.220
  7620, 11.439
  7680, 12.332
  7740, 19.443
  7800, 27.090
  7860, 24.947
  7920, 26.844
  7980, 31.220
  8040, 25.183
  8100, 29.661
  8160, 25.488
  8220, 29.875
  8280, 37.487
  8340, 40.694
  8400, 36.704
  8460, 37.595
  8520, 27.373
  8580, 40.653
  8640, 43.237
  8700, 44.848
  8760, 40.955
  8820, 35.999
  8880, 43.763
  8940, 45.639
  9000, 41.109
  9060, 26.041
  9120, -9999.000
  9180, 34.175
  9240, 40.066
  9300, 45.588
  9360, 46.825
  9420, 49.768
  9480, 41.873
  9540, 39.546
  9600, 35.704
  9660, 23.550
  9720, 25.726
  9780, 36.853
  9840, 45.652
  9900, 40.281
  9960, 45.391
 10020, 30.693
 10080, 31.988
 10140, 39.764
 10200, 29.929
 10260, 29.261
 10320, 25.132
 10380, 31.024
 10440, 34.598
 10500, 34.646
 10560, 33.991
 10620, 41.376
 10680, 37.333
 10740, 39.865
 10800, 41.598
 10860, 44.825
 10920, 48.582
 10980, 21.050
 11040, 41.276
 11100, 40.772
 11160, 36.316
 11220, 43.010
 11280, 30.732
 11340, 40.745
 11400, 39.528
 11460, 31.095
 11520, 36.897
 11580, 49.469
 11640, 36.391
 11700, 47.992
 11760, 49.098
 11820, 49.697
 11880, 48.723
 11940, 63.717
 12000, 55.784
 12060, 57.969
 12120, 52.030
 12180, 67.249
 12240, 59.968
 12300, 61.472
 12360, 60.568
 12420, 65.004
 12480, 68.890
 12540, 63.014
 12600, 65.225
 12660, 65.186
 12720, 57.460
 12780, 50.995
 12840, 56.289
 12900, 78.924
 12960, 111.115
 13020, 81.429
 13080, 100.961
 13140, 98.012
 13200, 95.257
 13260, 74.956
 13320, 61.465
 13380, 56.053
 13440, 60.392
 13500, 51.211
 13560, 51.831
 13620, 36.050
 13680, 34.771
 13740, 38.826
 13800, 40.474
 13860, 35.833
 13920, 35.558
 13980, 31.511
 14040, 35.391
 14100, 32.443
 14160, 37.398
 14220, 37.418
 14280, 36.692
 14340, 29.547
 14400, 29.819
 14460, 41.849
 14520, 41.403
 14580, 34.546
 14640, 24.239
 14700, 31.014
 14760, 32.358
 14820, 32.065
 14880, 25.911
 14940, 32.937
 15000, 35.380
 15060, 36.610
 15120, 32.928
 15180, 42.209
 15240, 44.882
 15300, 41.390
 15360, 32.748
 15420, 44.447
 15480, 35.241
 15540, 45.779
 15600, 38.303
 15660, 42.814
 15720, 40.182
 15780, 38.130
 15840, 45.811
 15900, 35.928
 15960, 51.475
 16020, 35.139
 16080, 47.635
 16140, 54.893
 16200, 46.315
 16260, 51.663
 16320, 66.925
 16380, 62.598
 16440, 63.638
 16500, -9999.000
 16560, 31.269
 16620, 35.770
 16680, 38.995
 16740, 41.537
 16800, 33.245
 16860, 30.728
 16920, 39.461
 16980, 52.711
 17040, 69.117
 17100, 53.991
 17160, 47.987
 17220, 68.852
 17280, 61.555
 17340, 34.567
 17400, 45.474
 17460, 44.621
 17520, 67.604
 17580, 51.130
 17640, 47.255
 17700, 56.441
 17760, 54.086
 17820, 54.618
 17880, 56.902
 17940, 60.719
 18000, 56.326
 18060, 64.851
 18120, 34.385
 18180, 74.515
 18240, 51.774
 18300, 36.215
 18360, 58.542
 18420, 57.156
 18480, 51.533
 18540, 56.947
 18600, 37.229
 18660, 42.570
 18720, 39.988
 18780, 56.983
 18840, 40.329
 18900, 51.522
 18960, 54.003
 19020, 39.650
 19080, 67.114
 19140, 62.663
 19200, 95.768
 19260, 58.899
 19320, 47.514
 19380, 60.379
 19440, 71.951
 19500, 71.246
 19560, 81.376
 19620, 54.998
 19680, 70.483
 19740, 63.016
 19800, 53.570
 19860, 56.135
 19920, 61.667
 19980, 66.071
 20040, 49.679
 20100, 39.596
 20160, 51.378
 20220, -9999.000
 20280, 35.064
 20340, 46.986
 20400, 43.741
 20460, 56.016
 20520, 44.485
 20580, 68.744
 20640, 88.826
 20700, 44.029
 20760, 52.757
 20820, 40.552
 20880, 40.715
 20940, 40.326
 21000, 40.024
 21060, 42.363
 21120, 34.591
 21180, 44.954
 21240, 45.786
 21300, 40.494
 21360, 35.650
 21420, 44.589
 21480, 38.121
 21540, 40.489
 21600, 34.788
 21660, 40.470
 21720, 29.753
 21780, 45.820
 21840, 43.053
 21900, 37.550
 21960, 61.281
 22020, 42.217
 22080, 38.702
 22140, 54.756
 22200, 42.988
 22260, 44.076
 22320, 42.091
 22380, 51.471
 22440, 50.886
 22500, 31.034
 22560, 23.985
 22620, 29.626
 22680, 26.993
 22740, 28.889
 22800, 22.599
 22860, 25.872
 22920, 34.711
 22980, 27.600
 23040, 23.730
 23100, 17.060
 23160, 18.952
 23220, 24.672
 23280, 24.753
 23340, 29.051
 23400, 24.237
 23460, 30.478
 23520, 37.653
 23580, 24.534
 23640, 19.368
 23700, 48.859
 23760, 48.055
 23820, 34.909
 23880, -9999.000
 23940, 31.502
 24000, 40.006
 24060, 31.556
 24120, 29.533
 24180, 19.430
 24240, 23.475
 24300, 21.248
 24360, 27.281
 24420, 29.283
 24480, 27.709
 24540, 24.062
 24600, 31.969
 24660, 26.914
 24720, 22.620
 24780, 27.261
 24840, 26.698
 24900, 30.402
 24960, 24.054
 25020, 34.256
 25080, 40.537
 25140, 22.206
 25200, 29.348
 25260, 44.438
 25320, 45.185
 25380, 47.788
 25440, 34.263
 25500, 57.205
 25560, 70.326
 25620, 83.625
 25680, 77.647
 25740, -9999.000
 25800, 81.239
 25860, 62.563
 25920, 52.730
 25980, 71.713
 26040, 63.304
 26100, 40.704
 26160, 36.528
 26220, 54.296
 26280, 48.345
 26340, 56.179
 26400, 39.276
 26460, 46.885
 26520, 52.717
 26580, 35.948
 26640, 49.584
 26700, 42.451
 26760, 55.152
 26820, 34.753
 26880, 23.825
 26940, 48.550
 27000, 39.977
 27060, 35.658
 27120, 38.059
 27180, 31.626
 27240, 30.224
 27300, 40.279
 27360, 27.947
 27420, 46.775
 27480, 49.173
 27540, 42.003
 27600, -9999.000
 27660, 37.227
 27720, 46.397
 27780, 62.265
 27840, 51.702
 27900, 73.206
 27960, 79.481
 28020, 68.854
 28080, 66.111
 28140, 66.728
 28200, 61.710
 28260, 67.035
 28320, 45.004
 28380, 55.652
 28440, 56.918
 28500, 41.593
 28560, 29.155
 28620, 46.653
 28680, 39.607
 28740, 38.672
 28800, 40.137
 28860, 40.167
 28920, 44.447
 28980, 46.299
 29040, 59.387
 29100, 65.882
 29160, 58.833
 29220, 68.153
 29280, 75.547
 29340, 45.997
 29400, 38.034
 29460, 53.746
 29520, 58.733
 29580, 59.068
 29640, 52.488
 29700, 54.912
 29760, 76.510
 29820, 49.861
 29880, 55.030
 29940, 65.137
 30000, 53.752
 30060, 71.623
 30120, 86.266
 30180, 74.862
 30240, 75.372
 30300, 70.921
 30360, 54.561
 30420, 78.234
 30480, 57.106
 30540, 52.771
 30600, 74.750
 30660, 40.534
 30720, 48.174
 30780, 53.881
 30840, 36.662
 30900, 48.694
 30960, 60.438
 31020, 40.418
 31080, 47.854
 31140, 47.670
 31200, 48.642
 31260, -9999.000
 31320, 41.115
 31380, 48.723
 31440, 54.731
 31500, 45.552
 31560, 48.773
 31620, 49.820
 31680, 66.448
 31740, 65.497
 31800, 62.778
 31860, 70.744
 31920, 75.136
 31980, 59.871
 32040, 72.967
 32100, 71.106
 32160, 62.105
 32220, 70.354
 32280, 68.693
 32340, 66.864
 32400, 80.224
 32460, 64.664
 32520, 70.391
 32580, 71.811
 32640, 60.550
 32700, 68.054
 32760, 67.383
 32820, 68.470
 32880, 69.073
 32940, 59.365
 33000, 62.120
 33060, 78.006
 33120, 94.859
 33180, 78.240
 33240, 86.142
 33300, 80.954
 33360, 76.709
 33420, 72.891
 33480, 64.925
 33540, 81.278
 33600, 72.375
 33660, 82.417
 33720, 94.738
 33780, 84.643
 33840, 84.809
 33900, 84.811
 33960, 88.656
 34020, 93.568
 34080, 104.550
 34140, 88.259
 34200, 85.969
 34260, 100.384
 34320, 97.680
 34380, 108.107
 34440, 117.637
 34500, 116.469
 34560, 108.284
 34620, 104.400
 34680, 98.179
 34740, 120.020
 34800, 122.904
 34860, 125.803
 34920, 120.065
 34980, -9999.000
 35040, 108.487
 35100, 123.281
 35160, 131.693
 35220, 121.604
 35280, 120.453
 35340, 126.885
 35400, 83.161
 35460, 53.494
 35520, 76.779
 35580, 72.667
 35640, 92.675
 35700, 86.804
 35760, 78.540
 35820, 83.413
 35880, 94.227
 35940, 492.171
 36000, 294.175
 36060, 172.832
 36120, 159.145
 36180, 155.003
 36240, 99.564
 36300, 145.173
 36360, 134.794
 36420, 127.190
 36480, 78.231
 36540, 88.000
 36600, 64.672
 36660, 96.220
 36720, 91.655
 36780, 72.670
 36840, 77.370
 36900, 64.278
 36960, 59.791
 37020, 59.604
 37080, 61.515
 37140, 52.827
 37200, 30.396
 37260, 45.867
 37320, 47.117
 37380, 43.674
 37440, 55.810
 37500, 58.970
 37560, 61.111
 37620, 39.756
 37680, 33.214
 37740, 31.959
 37800, 41.109
 37860, 42.690
 37920, 30.135
 37980, 26.534
 38040, 30.718
 38100, 29.319
 38160, 43.080
 38220, 36.331
 38280, 33.985
 38340, 34.291
 38400, 24.682
 38460, 38.075
 38520, 37.485
 38580, 49.306
 38640, 151.216
 38700, -9999.000
 38760, 140.113
 38820, 79.643
 38880, 82.020
 38940, 59.245
 39000, 70.967
 39060, 91.452
 39120, 76.532
 39180, 104.589
 39240, 120.630
 39300, 68.538
 39360, 90.392
 39420, 71.130
 39480, 87.017
 39540, 62.865
 39600, 47.815
 39660, 55.384
 39720, 41.293
 39780, 72.175
 39840, 111.767
 39900, 89.937
 39960, 61.905
 40020, 90.797
 40080, 80.586
 40140, 84.070
 40200, 84.176
 40260, 72.485
 40320, 62.582
 40380, 83.370
 40440, 79.245
 40500, 55.407
 40560, 77.898
 40620, 83.258
 40680, 73.053
 40740, 68.779
 40800, 72.713
 40860, 69.098
 40920, 79.034
 40980, 80.065
 41040, 62.517
 41100, 83.914
 41160, 83.867
 41220, 94.380
 41280, 126.871
 41340, 94.642
 41400, 83.237
 41460, 145.220
 41520, 134.301
 41580, 136.234
 41640, 134.194
 41700, 137.526
 41760, 122.500
 41820, 121.738
 41880, 124.800
 41940, 118.809
 42000, 136.598
 42060, 121.220
 42120, 103.897
 42180, 179.794
 42240, 194.399
 42300, 311.243
 42360, -9999.000
 42420, 385.870
 42480, 119.860
 42540, 128.573
 42600, 122.091
 42660, 95.764
 42720, 106.851
 42780, 110.550
 42840, 96.422
 42900, 127.014
 42960, 108.550
 43020, 140.439
 43080, 127.441
 43140, 102.901
 43200, 113.943
 43260, 125.662
 43320, 140.564
 43380, 147.130
 43440, 174.896
 43500, 130.635
 43560, 119.482
 43620, 177.882
 43680, 179.921
 43740, 193.490
 43800, 195.074
 43860, 170.633
 43920, 141.160
 43980, 69.513
 44040, 48.791
 44100, 52.144
 44160, 62.835
 44220, -9999.000
 44280, 28.625
 44340, 47.832
 44400, 50.493
 44460, 39.040
 44520, 43.965
 44580, 37.469
 44640, 46.170
 44700, 45.690
 44760, 52.501
 44820, 53.666
 44880, 62.354
 44940, 53.298
 45000, 54.068
 45060, 63.193
 45120, 65.029
 45180, 60.878
 45240, 78.753
 45300, 72.358
 45360, 81.800
 45420, 106.596
 45480, 98.251
 45540, 129.894
 45600, 145.136
 45660, 135.923
 45720, 122.917
 45780, 155.428
 45840, 150.094
 45900, 132.026
 45960, 123.796
 46020, 124.919
 46080, -9999.000
 46140, 140.544
 46200, 127.843
 46260, 178.425
 46320, 283.908
 46380, 289.552
 46440, 223.073
 46500, 266.473
 46560, 230.245
 46620, 193.867
 46680, 149.728
 46740, 158.176
 46800, 129.150
 46860, 122.969
 46920, 165.573
 46980, 102.696
 47040, 62.859
 47100, 41.989
 47160, 51.492
 47220, 55.711
 47280, 50.856
 47340, 50.825
 47400, 63.855
 47460, 55.096
 47520, 49.785
 47580, 66.117
 47640, 85.299
 47700, 96.951
 47760, 150.673
 47820, 154.885
 47880, 149.782
 47940, 171.528
 48000, 178.416
 48060, 323.088
 48120, 312.402
 48180, 244.592
 48240, 216.101
 48300, 201.228
 48360, 163.432
 48420, 166.550
 48480, 166.787
 48540, 167.806
 48600, 153.796
 48660, 217.937
 48720, 221.590
 48780, 171.141
 48840, 147.999
 48900, 157.623
 48960, 135.719
 49020, 120.839
 49080, 155.436
 49140, 200.504
 49200, 210.414
 49260, 192.816
 49320, 168.419
 49380, 144.056
 49440, 136.703
 49500, 206.933
 49560, 309.011
 49620, 168.971
 49680, 142.104
 49740, -9999.000
 49800, 219.603
 49860, 251.299
 49920, 327.871
 49980, 277.835
 50040, 247.709
 50100, 272.845
 50160, 260.532
 50220, 117.886
 50280, 110.069
 50340, 137.181
 50400, 162.097
 50460, 135.086
 50520, 123.688
 50580, 110.366
 50640, 125.819
 50700, 152.873
 50760, 119.650
 50820, 112.905
 50880, 96.063
 50940, 83.385
 51000, 78.456
 51060, 90.105
 51120, 79.705
 51180, 84.341
 51240, 58.567
 51300, 55.082
 51360, 49.650
 51420, 48.708
 51480, 48.647
 51540, 60.506
 51600, 69.678
 51660, 31.298
 51720, -9999.000
 51780, -9999.000
 51840, -9999.000
 51900, -9999.000
 51960, -9999.000
 52020, -9999.000
 52080, -9999.000
 52140, -9999.000
 52200, -9999.000
 52260, 70.025
 52320, 29.023
 52380, 26.144
 52440, 31.985
 52500, 31.072
 52560, 30.147
 52620, 35.537
 52680, 23.419
 52740, 24.428
 52800, 25.268
 52860, 21.064
 52920, 27.643
 52980, 27.698
 53040, 27.872
 53100, 34.183
 53160, 30.323
 53220, 29.903
 53280, 40.063
 53340, 42.822
 53400, 39.941
 53460, -9999.000
 53520, 39.363
 53580, 35.381
 53640, 40.756
 53700, 33.446
 53760, 29.925
 53820, 23.047
 53880, 24.858
 53940, 28.524
 54000, 35.923
 54060, 31.316
 54120, 34.215
 54180, 33.016
 54240, 35.152
 54300, 35.605
 54360, 26.312
 54420, 24.420
 54480, 30.090
 54540, 28.719
 54600, 25.962
 54660, 23.531
 54720, 37.334
 54780, 27.253
 54840, 25.578
 54900, 20.613
 54960, 31.527
 55020, 30.016
 55080, 31.782
 55140, 18.200
 55200, 27.524
 55260, 31.221
 55320, 35.028
 55380, 33.960
 55440, 29.285
 55500, 21.284
 55560, 36.341
 55620, 20.272
 55680, 20.738
 55740, 23.334
 55800, 19.899
 55860, 25.531
 55920, 17.440
 55980, 16.718
 56040, 28.899
 56100, 36.425
 56160, 30.682
 56220, 29.854
 56280, 27.959
 56340, 15.962
 56400, 17.805
 56460, 14.768
 56520, 21.271
 56580, 21.239
 56640, 25.731
 56700, 22.650
 56760, 19.750
 56820, 16.312
 56880, 29.547
 56940, 29.420
 57000, 32.510
 57060, 22.557
 57120, 41.071
 57180, 23.721
 57240, 17.806
 57300, 27.912
 57360, 18.176
 57420, 13.568
 57480, 19.856
 57540, 28.738
 57600, 33.348
 57660, 22.864
 57720, 22.352
 57780, 22.106
 57840, 26.880
 57900, 16.316
 57960, 33.403
 58020, 29.156
 58080, 19.800
 58140, 21.495
 58200, 16.014
 58260, 18.757
 58320, 19.563
 58380, 10.571
 58440, 14.550
 58500, 20.769
 58560, 17.534
 58620, 18.840
 58680, 30.279
 58740, 21.118
 58800, 20.883
 58860, 27.362
 58920, 26.553
 58980, 39.058
 59040, 21.628
 59100, 23.814
 59160, 22.394
 59220, 26.772
 59280, 33.711
 59340, 12.096
 59400, 14.072
 59460, 23.063
 59520, 24.994
 59580, 39.895
 59640, 23.565
 59700, 16.504
 59760, 15.568
 59820, 20.477
 59880, 17.903
 59940, 29.979
 60000, 15.589
 60060, 18.346
 60120, 21.325
 60180, 33.554
 60240, 29.665
 60300, 30.710
 60360, 33.683
 60420, 30.560
 60480, 15.570
 60540, 36.686
 60600,  9.447
 60660, 21.351
 60720, 16.832
 60780, 33.693
 60840, -9999.000
 60900, 32.180
 60960, 30.255
 61020, 39.109
 61080, 29.655
 61140, 33.060
 61200, 10.642
 61260, 12.984
 61320, 26.135
 61380, 41.648
 61440, 30.483
 61500, 20.206
 61560, 19.700
 61620, 22.293
 61680,  9.829
 61740, 40.033
 61800, 43.493
 61860, 27.111
 61920, 35.883
 61980, 14.596
 62040, 18.102
 62100, 40.215
 62160, 33.751
 62220, 25.267
 62280, 24.302
 62340, 26.355
 62400, 26.490
 62460, 30.306
 62520, 24.393
 62580, 31.569
 62640, 29.239
 62700, -9999.000
 62760, 111.363
 62820, 100.896
 62880, 75.026
 62940, 62.456
 63000, 62.317
 63060, 77.343
 63120, 32.788
 63180, 64.572
 63240, 122.298
 63300, 89.260
 63360, 68.962
 63420, 61.144
 63480, 73.392
 63540, 47.693
 63600, 29.384
 63660, 22.721
 63720, 35.669
 63780, 127.508
 63840, 78.027
 63900, 85.078
 63960, 42.448
 64020, 41.577
 64080, 48.919
 64140, 44.580
 64200, 30.696
 64260, 32.339
 64320, 34.063
 64380, 39.505
 64440, 29.466
 64500, 16.740
 64560, -9999.000
 64620, 38.764
 64680, 40.394
 64740, 40.326
 64800, 49.428
 64860, 42.880
 64920, 26.562
 64980, 28.250
 65040, 24.300
 65100, 23.153
 65160, 26.595
 65220, 20.476
 65280, 17.365
 65340, 17.790
 65400, 16.279
 65460, 18.513
 65520, 16.568
 65580, 25.473
 65640, 16.636
 65700, 25.144
 65760, 12.131
 65820, 25.343
 65880, 29.637
 65940, 30.431
 66000, 20.967
 66060, 26.126
 66120, 18.757
 66180, 21.501
 66240, 28.957
 66300, 24.944
 66360, 53.257
 66420, 30.272
 66480, 24.476
 66540, 24.962
 66600, 40.582
 66660, 35.159
 66720, 24.990
 66780, 30.819
 66840, 33.744
 66900, 12.655
 66960, 24.029
 67020, 23.828
 67080, 31.415
 67140, 30.193
 67200, 31.504
 67260, 25.384
 67320, 30.183
 67380, 30.624
 67440, 15.435
 67500, 22.734
 67560, 24.685
 67620, 13.880
 67680, 25.041
 67740, 21.978
 67800, 24.133
 67860, 31.565
 67920, 33.221
 67980, 22.848
 68040, 35.592
 68100, 26.415
 68160, 28.285
 68220, -9999.000
 68280, 16.655
 68340, 28.713
 68400, 22.321
 68460, 38.934
 68520, 24.431
 68580, 27.031
 68640, 22.851
 68700, 19.780
 68760, 29.854
 68820, 28.783
 68880, 23.214
 68940, 23.452
 69000, 20.673
 69060, 17.315
 69120, 21.289
 69180, 18.847
 69240, 18.284
 69300, 13.376
 69360, 16.415
 69420, 27.255
 69480, 20.451
 69540, 16.569
 69600, 17.136
 69660, 14.993
 69720, 12.170
 69780, 13.798
 69840, 20.870
 69900, 19.930
 69960, 17.060
 70020, 10.537
 70080, -9999.000
 70140, 58.218
 70200, 21.065
 70260, 20.656
 70320, 39.344
 70380, 14.150
 70440, 34.356
 70500, 21.483
 70560, 16.519
 70620, 10.221
 70680, 20.581
 70740, 17.635
 70800, 17.644
 70860, 17.049
 70920, 12.860
 70980, 15.344
 71040, 18.516
 71100, 10.306
 71160, 20.293
 71220, 18.173
 71280, 12.570
 71340, 22.050
 71400, 19.874
 71460, 19.646
 71520, 18.272
 71580, 15.177
 71640, 12.337
 71700, 12.941
 71760, 17.068
 71820, 16.164
 71880, 16.985
 71940, -9999.000
 72000, 21.448
 72060, 26.254
 72120, 11.799
 72180, 19.545
 72240, 32.145
 72300, 23.547
 72360, 22.054
 72420, 18.462
 72480, 19.479
 72540, 17.290
 72600, 20.034
 72660, 18.829
 72720, 20.899
 72780, 24.215
 72840, 14.935
 72900, 22.360
 72960, 10.424
 73020, 13.472
 73080, 29.680
 73140, 37.131
 73200, 21.541
 73260, 11.031
 73320, 18.146
 73380, 19.754
 73440, 15.256
 73500, 14.168
 73560, 12.384
 73620, 21.214
 73680, 28.141
 73740, 23.162
 73800, 26.223
 73860,  9.750
 73920, 16.951
 73980, 13.116
 74040, 12.278
 74100, 20.110
 74160, 24.236
 74220, 11.828
 74280, 18.016
 74340, 11.929
 74400, 23.268
 74460, 15.987
 74520, 10.845
 74580, 14.351
 74640, 10.295
 74700, 12.109
 74760, 23.199
 74820, 20.304
 74880, 10.148
 74940,  9.915
 75000, 23.262
 75060, 12.210
 75120,  9.421
 75180,  6.493
 75240,  8.386
 75300, 11.178
 75360, 11.202
 75420, 16.565
 75480, 19.183
 75540,  7.259
 75600, 21.624
 75660, 17.211
 75720, 17.259
 75780, 12.100
 75840, 13.552
 75900, 12.510
 75960, 17.881
 76020, 10.189
 76080, 13.060
 76140, 14.954
 76200, 14.658
 76260,  6.731
 76320,  6.193
 76380, 10.782
 76440,  6.012
 76500,  8.938
 76560, 10.044
 76620, 16.710
 76680, 14.691
 76740, 16.014
 76800, 19.244
 76860, 10.367
 76920,  7.640
 76980,  9.263
 77040, 10.343
 77100,  8.932
 77160,  7.569
 77220, 21.152
 77280, 21.027
 77340, 13.061
 77400,  6.080
 77460,  9.798
 77520, 18.614
 77580,  7.085
 77640, 15.367
 77700, 20.534
 77760, 17.367
 77820, 10.656
 77880, 11.955
 77940, 12.594
 78000, 13.594
 78060,  6.706
 78120, 10.674
 78180, 17.132
 78240, 23.363
 78300, 15.855
 78360, 17.836
 78420, 10.775
 78480, 10.575
 78540,  8.343
 78600, 12.912
 78660,  3.694
 78720,  7.075
 78780, 15.295
 78840,  9.243
 78900, 16.172
 78960, 10.450
 79020,  7.261
 79080,  6.871
 79140, 14.462
 79200, 10.000
 79260,  7.472
 79320, -9999.000
 79380,  8.666
 79440,  9.024
 79500, 10.925
 79560, 14.729
 79620,  2.340
 79680, 17.576
 79740,  8.216
 79800, 11.370
 79860, 12.346
 79920,  5.461
 79980,  8.527
 80040,  9.704
 80100,  9.575
 80160, 19.758
 80220, 20.070
 80280,  7.495
 80340,  6.829
 80400,  5.384
 80460,  5.756
 80520,  1.552
 80580,  2.512
 80640, 10.002
 80700, 11.860
 80760,  6.280
 80820,  2.924
 80880,  5.529
 80940, 10.025
 81000, 10.403
 81060,  5.650
 81120,  8.536
 81180, -9999.000
 81240, -2.100
 81300,  6.101
 81360,  3.515
 81420,  0.886
 81480,  3.798
 81540, -0.841
 81600,  0.576
 81660,  7.017
 81720,  8.116
 81780,  4.795
 81840,  5.864
 81900,  7.804
 81960, 10.344
 82020, 11.769
 82080,  5.367
 82140,  2.932
 82200,  2.783
 82260,  4.965
 82320,  5.098
 82380,  7.707
 82440,  8.880
 82500,  8.140
 82560,  2.484
 82620,  4.532
 82680,  4.585
 82740,  4.956
 82800,  4.946
 82860,  7.281
 82920, 10.131
 82980,  8.998
 83040, -9999.000
 83100,  5.268
 83160, 10.132
 83220,  1.746
 83280,  8.326
 83340, 18.702
 83400,  6.812
 83460,  8.668
 83520,  6.402
 83580, 10.547
 83640, 15.631
 83700,  5.203
 83760,  5.688
 83820, 12.299
 83880,  9.791
 83940, 13.952
 84000,  9.017
 84060,  4.470
 84120, 11.176
 84180,  2.361
 84240, 16.253
 84300, 13.582
 84360, 12.551
 84420,  9.192
 84480,  9.725
 84540, 12.063
 84600, 11.277
 84660,  7.017
 84720,  8.397
 84780, 11.850
 84840, 11.694
 84900,  5.828
 84960,  3.908
 85020, 10.988
 85080,  7.771
 85140,  7.010
 85200, 13.356
 85260, 17.180
 85320, 16.359
 85380, 12.223
 85440, 16.799
 85500,  8.293
 85560,  8.548
 85620,  3.686
 85680,  6.379
 85740,  7.204
 85800,  6.672
 85860,  9.883
 85920,  4.906
 85980,  9.587
 86040,  3.907
 86100,  6.917
 86160,  3.167
 86220,  6.080
 86280,  5.790
 86340,  8.652
